# OpenSignals Text File Format. Version 1
# {"98:D3:11:FD:1F:39": {"position": 0, "device": "bitalino_rev", "device name": "98:D3:11:FD:1F:39", "device connection": "/dev/tty.BITalino-1F-39-DevB", "sampling rate": 100, "resolution": [4, 1, 1, 1, 1, 10, 10], "firmware version": 1281, "comments": "", "keywords": "", "mode": 0, "sync interval": 2, "date": "2022-1-28", "time": "18:17:30.999", "channels": [5, 6], "sensor": ["ECGBIT", "EDABITREV"], "label": ["A5", "A6"], "column": ["nSeq", "I1", "I2", "O1", "O2", "A5", "A6"], "special": [{}, {}], "digital IO": [0, 0, 1, 1]}}
# EndOfHeader
0	0	0	0	0	483	835	
1	0	0	0	0	507	835	
2	0	0	0	0	479	835	
3	0	0	0	0	498	835	
4	0	0	0	0	505	835	
5	0	0	0	0	493	836	
6	0	0	0	0	504	835	
7	0	0	0	0	513	836	
8	0	0	0	0	642	836	
9	0	0	0	0	647	836	
10	0	0	0	0	547	836	
11	0	0	0	0	492	837	
12	0	0	0	0	470	837	
13	0	0	0	0	481	836	
14	0	0	0	0	478	837	
15	0	0	0	0	479	837	
0	0	0	0	0	481	837	
1	0	0	0	0	469	837	
2	0	0	0	0	496	837	
3	0	0	0	0	497	838	
4	0	0	0	0	496	838	
5	0	0	0	0	518	838	
6	0	0	0	0	515	838	
7	0	0	0	0	512	838	
8	0	0	0	0	531	838	
9	0	0	0	0	527	838	
10	0	0	0	0	543	838	
11	0	0	0	0	517	838	
12	0	0	0	0	527	838	
13	0	0	0	0	541	838	
14	0	0	0	0	547	838	
15	0	0	0	0	544	838	
0	0	0	0	0	529	838	
1	0	0	0	0	547	838	
2	0	0	0	0	534	839	
3	0	0	0	0	523	839	
4	0	0	0	0	542	838	
5	0	0	0	0	507	838	
6	0	0	0	0	519	838	
7	0	0	0	0	490	839	
8	0	0	0	0	481	838	
9	0	0	0	0	499	838	
10	0	0	0	0	490	839	
11	0	0	0	0	501	839	
12	0	0	0	0	508	839	
13	0	0	0	0	487	839	
14	0	0	0	0	513	838	
15	0	0	0	0	496	839	
0	0	0	0	0	514	839	
1	0	0	0	0	506	838	
2	0	0	0	0	500	839	
3	0	0	0	0	520	838	
4	0	0	0	0	517	839	
5	0	0	0	0	523	838	
6	0	0	0	0	531	838	
7	0	0	0	0	518	838	
8	0	0	0	0	524	837	
9	0	0	0	0	513	837	
10	0	0	0	0	527	836	
11	0	0	0	0	516	836	
12	0	0	0	0	505	837	
13	0	0	0	0	504	836	
14	0	0	0	0	488	835	
15	0	0	0	0	509	835	
0	0	0	0	0	495	835	
1	0	0	0	0	491	835	
2	0	0	0	0	506	834	
3	0	0	0	0	489	834	
4	0	0	0	0	509	834	
5	0	0	0	0	512	833	
6	0	0	0	0	511	833	
7	0	0	0	0	521	832	
8	0	0	0	0	516	832	
9	0	0	0	0	534	831	
10	0	0	0	0	540	831	
11	0	0	0	0	525	830	
12	0	0	0	0	523	830	
13	0	0	0	0	514	829	
14	0	0	0	0	510	829	
15	0	0	0	0	510	828	
0	0	0	0	0	504	828	
1	0	0	0	0	495	827	
2	0	0	0	0	482	827	
3	0	0	0	0	502	826	
4	0	0	0	0	497	825	
5	0	0	0	0	482	825	
6	0	0	0	0	508	825	
7	0	0	0	0	497	824	
8	0	0	0	0	503	824	
9	0	0	0	0	496	823	
10	0	0	0	0	577	823	
11	0	0	0	0	644	823	
12	0	0	0	0	602	823	
13	0	0	0	0	500	822	
14	0	0	0	0	489	822	
15	0	0	0	0	472	822	
0	0	0	0	0	477	822	
1	0	0	0	0	480	822	
2	0	0	0	0	486	822	
3	0	0	0	0	502	822	
4	0	0	0	0	480	822	
5	0	0	0	0	496	822	
6	0	0	0	0	503	822	
7	0	0	0	0	503	822	
8	0	0	0	0	504	822	
9	0	0	0	0	499	821	
10	0	0	0	0	513	822	
11	0	0	0	0	497	822	
12	0	0	0	0	519	822	
13	0	0	0	0	520	822	
14	0	0	0	0	508	822	
15	0	0	0	0	529	822	
0	0	0	0	0	511	822	
1	0	0	0	0	523	822	
2	0	0	0	0	520	822	
3	0	0	0	0	523	823	
4	0	0	0	0	529	822	
5	0	0	0	0	511	823	
6	0	0	0	0	515	822	
7	0	0	0	0	511	823	
8	0	0	0	0	491	823	
9	0	0	0	0	498	823	
10	0	0	0	0	466	823	
11	0	0	0	0	489	823	
12	0	0	0	0	481	823	
13	0	0	0	0	475	824	
14	0	0	0	0	502	824	
15	0	0	0	0	499	824	
0	0	0	0	0	491	825	
1	0	0	0	0	511	825	
2	0	0	0	0	496	826	
3	0	0	0	0	520	827	
4	0	0	0	0	497	828	
5	0	0	0	0	502	828	
6	0	0	0	0	526	828	
7	0	0	0	0	505	829	
8	0	0	0	0	523	829	
9	0	0	0	0	510	829	
10	0	0	0	0	513	830	
11	0	0	0	0	524	830	
12	0	0	0	0	513	830	
13	0	0	0	0	509	830	
14	0	0	0	0	495	831	
15	0	0	0	0	512	831	
0	0	0	0	0	524	831	
1	0	0	0	0	494	831	
2	0	0	0	0	528	831	
3	0	0	0	0	497	832	
4	0	0	0	0	516	832	
5	0	0	0	0	515	831	
6	0	0	0	0	506	832	
7	0	0	0	0	517	832	
8	0	0	0	0	505	832	
9	0	0	0	0	525	832	
10	0	0	0	0	527	833	
11	0	0	0	0	506	833	
12	0	0	0	0	515	832	
13	0	0	0	0	524	833	
14	0	0	0	0	519	833	
15	0	0	0	0	526	833	
0	0	0	0	0	515	833	
1	0	0	0	0	532	833	
2	0	0	0	0	515	833	
3	0	0	0	0	531	833	
4	0	0	0	0	551	833	
5	0	0	0	0	529	834	
6	0	0	0	0	547	833	
7	0	0	0	0	526	834	
8	0	0	0	0	526	834	
9	0	0	0	0	515	833	
10	0	0	0	0	500	834	
11	0	0	0	0	518	833	
12	0	0	0	0	503	834	
13	0	0	0	0	510	833	
14	0	0	0	0	507	834	
15	0	0	0	0	497	834	
0	0	0	0	0	516	834	
1	0	0	0	0	502	834	
2	0	0	0	0	510	834	
3	0	0	0	0	511	834	
4	0	0	0	0	535	834	
5	0	0	0	0	678	834	
6	0	0	0	0	643	834	
7	0	0	0	0	543	834	
8	0	0	0	0	481	834	
9	0	0	0	0	465	834	
10	0	0	0	0	470	834	
11	0	0	0	0	459	834	
12	0	0	0	0	466	834	
13	0	0	0	0	477	834	
14	0	0	0	0	475	834	
15	0	0	0	0	488	834	
0	0	0	0	0	476	834	
1	0	0	0	0	487	834	
2	0	0	0	0	487	834	
3	0	0	0	0	487	834	
4	0	0	0	0	490	834	
5	0	0	0	0	499	834	
6	0	0	0	0	515	834	
7	0	0	0	0	505	834	
8	0	0	0	0	510	834	
9	0	0	0	0	520	834	
10	0	0	0	0	514	834	
11	0	0	0	0	524	834	
12	0	0	0	0	540	834	
13	0	0	0	0	519	834	
14	0	0	0	0	529	833	
15	0	0	0	0	535	834	
0	0	0	0	0	527	834	
1	0	0	0	0	521	833	
2	0	0	0	0	512	834	
3	0	0	0	0	512	833	
4	0	0	0	0	480	834	
5	0	0	0	0	484	833	
6	0	0	0	0	498	833	
7	0	0	0	0	486	833	
8	0	0	0	0	502	834	
9	0	0	0	0	493	833	
10	0	0	0	0	494	834	
11	0	0	0	0	492	833	
12	0	0	0	0	492	834	
13	0	0	0	0	513	833	
14	0	0	0	0	507	834	
15	0	0	0	0	506	833	
0	0	0	0	0	513	833	
1	0	0	0	0	498	833	
2	0	0	0	0	518	833	
3	0	0	0	0	502	833	
4	0	0	0	0	505	834	
5	0	0	0	0	513	834	
6	0	0	0	0	508	833	
7	0	0	0	0	513	834	
8	0	0	0	0	499	833	
9	0	0	0	0	515	833	
10	0	0	0	0	508	833	
11	0	0	0	0	511	833	
12	0	0	0	0	503	833	
13	0	0	0	0	495	833	
14	0	0	0	0	501	833	
15	0	0	0	0	513	833	
0	0	0	0	0	500	833	
1	0	0	0	0	513	833	
2	0	0	0	0	500	833	
3	0	0	0	0	514	833	
4	0	0	0	0	511	833	
5	0	0	0	0	503	833	
6	0	0	0	0	525	833	
7	0	0	0	0	498	833	
8	0	0	0	0	518	833	
9	0	0	0	0	511	833	
10	0	0	0	0	496	832	
11	0	0	0	0	518	833	
12	0	0	0	0	515	833	
13	0	0	0	0	511	833	
14	0	0	0	0	515	833	
15	0	0	0	0	507	833	
0	0	0	0	0	516	833	
1	0	0	0	0	513	833	
2	0	0	0	0	520	833	
3	0	0	0	0	515	833	
4	0	0	0	0	511	833	
5	0	0	0	0	524	833	
6	0	0	0	0	503	833	
7	0	0	0	0	504	833	
8	0	0	0	0	520	833	
9	0	0	0	0	508	833	
10	0	0	0	0	516	833	
11	0	0	0	0	511	833	
12	0	0	0	0	503	833	
13	0	0	0	0	527	833	
14	0	0	0	0	519	833	
15	0	0	0	0	521	833	
0	0	0	0	0	522	833	
1	0	0	0	0	527	833	
2	0	0	0	0	523	832	
3	0	0	0	0	515	833	
4	0	0	0	0	515	833	
5	0	0	0	0	492	833	
6	0	0	0	0	503	833	
7	0	0	0	0	500	833	
8	0	0	0	0	496	833	
9	0	0	0	0	502	833	
10	0	0	0	0	488	833	
11	0	0	0	0	496	833	
12	0	0	0	0	506	832	
13	0	0	0	0	494	833	
14	0	0	0	0	506	833	
15	0	0	0	0	483	833	
0	0	0	0	0	554	832	
1	0	0	0	0	684	833	
2	0	0	0	0	664	833	
3	0	0	0	0	549	833	
4	0	0	0	0	469	832	
5	0	0	0	0	464	833	
6	0	0	0	0	468	832	
7	0	0	0	0	459	832	
8	0	0	0	0	479	832	
9	0	0	0	0	482	833	
10	0	0	0	0	488	832	
11	0	0	0	0	486	833	
12	0	0	0	0	479	832	
13	0	0	0	0	501	832	
14	0	0	0	0	492	833	
15	0	0	0	0	497	832	
0	0	0	0	0	515	833	
1	0	0	0	0	497	833	
2	0	0	0	0	509	832	
3	0	0	0	0	510	833	
4	0	0	0	0	522	833	
5	0	0	0	0	516	832	
6	0	0	0	0	517	833	
7	0	0	0	0	535	833	
8	0	0	0	0	512	833	
9	0	0	0	0	528	832	
10	0	0	0	0	542	832	
11	0	0	0	0	524	832	
12	0	0	0	0	537	833	
13	0	0	0	0	523	832	
14	0	0	0	0	518	832	
15	0	0	0	0	515	832	
0	0	0	0	0	495	832	
1	0	0	0	0	500	832	
2	0	0	0	0	481	832	
3	0	0	0	0	487	832	
4	0	0	0	0	480	832	
5	0	0	0	0	479	832	
6	0	0	0	0	509	832	
7	0	0	0	0	488	832	
8	0	0	0	0	495	832	
9	0	0	0	0	511	832	
10	0	0	0	0	494	832	
11	0	0	0	0	504	832	
12	0	0	0	0	493	833	
13	0	0	0	0	503	832	
14	0	0	0	0	508	832	
15	0	0	0	0	504	832	
0	0	0	0	0	500	832	
1	0	0	0	0	509	833	
2	0	0	0	0	510	832	
3	0	0	0	0	513	832	
4	0	0	0	0	492	832	
5	0	0	0	0	517	831	
6	0	0	0	0	509	832	
7	0	0	0	0	507	832	
8	0	0	0	0	518	832	
9	0	0	0	0	504	832	
10	0	0	0	0	514	832	
11	0	0	0	0	515	832	
12	0	0	0	0	516	832	
13	0	0	0	0	515	832	
14	0	0	0	0	513	832	
15	0	0	0	0	512	832	
0	0	0	0	0	508	832	
1	0	0	0	0	511	832	
2	0	0	0	0	506	832	
3	0	0	0	0	507	832	
4	0	0	0	0	514	832	
5	0	0	0	0	501	832	
6	0	0	0	0	519	832	
7	0	0	0	0	509	832	
8	0	0	0	0	505	832	
9	0	0	0	0	520	832	
10	0	0	0	0	508	832	
11	0	0	0	0	518	832	
12	0	0	0	0	518	832	
13	0	0	0	0	509	832	
14	0	0	0	0	521	832	
15	0	0	0	0	512	832	
0	0	0	0	0	504	832	
1	0	0	0	0	513	832	
2	0	0	0	0	509	832	
3	0	0	0	0	516	832	
4	0	0	0	0	513	832	
5	0	0	0	0	519	832	
6	0	0	0	0	524	832	
7	0	0	0	0	523	832	
8	0	0	0	0	522	832	
9	0	0	0	0	508	832	
10	0	0	0	0	525	832	
11	0	0	0	0	526	832	
12	0	0	0	0	513	832	
13	0	0	0	0	522	832	
14	0	0	0	0	512	832	
15	0	0	0	0	508	832	
0	0	0	0	0	505	832	
1	0	0	0	0	491	832	
2	0	0	0	0	507	832	
3	0	0	0	0	496	832	
4	0	0	0	0	491	832	
5	0	0	0	0	504	831	
6	0	0	0	0	498	832	
7	0	0	0	0	504	832	
8	0	0	0	0	502	832	
9	0	0	0	0	508	831	
10	0	0	0	0	536	832	
11	0	0	0	0	644	832	
12	0	0	0	0	653	832	
13	0	0	0	0	555	832	
14	0	0	0	0	471	832	
15	0	0	0	0	471	831	
0	0	0	0	0	467	832	
1	0	0	0	0	486	832	
2	0	0	0	0	478	832	
3	0	0	0	0	490	832	
4	0	0	0	0	508	832	
5	0	0	0	0	482	832	
6	0	0	0	0	505	831	
7	0	0	0	0	492	832	
8	0	0	0	0	507	832	
9	0	0	0	0	505	832	
10	0	0	0	0	503	832	
11	0	0	0	0	520	832	
12	0	0	0	0	516	832	
13	0	0	0	0	521	832	
14	0	0	0	0	533	832	
15	0	0	0	0	529	832	
0	0	0	0	0	543	832	
1	0	0	0	0	536	831	
2	0	0	0	0	539	832	
3	0	0	0	0	551	832	
4	0	0	0	0	522	832	
5	0	0	0	0	540	831	
6	0	0	0	0	533	832	
7	0	0	0	0	535	831	
8	0	0	0	0	517	832	
9	0	0	0	0	502	832	
10	0	0	0	0	497	831	
11	0	0	0	0	472	832	
12	0	0	0	0	489	831	
13	0	0	0	0	496	831	
14	0	0	0	0	479	832	
15	0	0	0	0	489	832	
0	0	0	0	0	481	832	
1	0	0	0	0	499	832	
2	0	0	0	0	500	832	
3	0	0	0	0	499	831	
4	0	0	0	0	500	832	
5	0	0	0	0	495	832	
6	0	0	0	0	508	832	
7	0	0	0	0	509	832	
8	0	0	0	0	493	832	
9	0	0	0	0	504	832	
10	0	0	0	0	508	832	
11	0	0	0	0	504	832	
12	0	0	0	0	513	832	
13	0	0	0	0	504	832	
14	0	0	0	0	514	832	
15	0	0	0	0	512	832	
0	0	0	0	0	503	831	
1	0	0	0	0	516	832	
2	0	0	0	0	506	832	
3	0	0	0	0	511	831	
4	0	0	0	0	507	832	
5	0	0	0	0	515	831	
6	0	0	0	0	514	832	
7	0	0	0	0	509	831	
8	0	0	0	0	514	831	
9	0	0	0	0	508	832	
10	0	0	0	0	523	831	
11	0	0	0	0	507	832	
12	0	0	0	0	512	831	
13	0	0	0	0	523	832	
14	0	0	0	0	500	832	
15	0	0	0	0	515	831	
0	0	0	0	0	510	831	
1	0	0	0	0	505	832	
2	0	0	0	0	519	831	
3	0	0	0	0	500	832	
4	0	0	0	0	513	831	
5	0	0	0	0	512	831	
6	0	0	0	0	506	832	
7	0	0	0	0	518	831	
8	0	0	0	0	511	832	
9	0	0	0	0	505	831	
10	0	0	0	0	510	831	
11	0	0	0	0	500	832	
12	0	0	0	0	512	831	
13	0	0	0	0	508	831	
14	0	0	0	0	524	831	
15	0	0	0	0	536	831	
0	0	0	0	0	513	831	
1	0	0	0	0	514	831	
2	0	0	0	0	510	832	
3	0	0	0	0	494	831	
4	0	0	0	0	496	832	
5	0	0	0	0	483	831	
6	0	0	0	0	501	832	
7	0	0	0	0	495	832	
8	0	0	0	0	496	831	
9	0	0	0	0	509	831	
10	0	0	0	0	496	832	
11	0	0	0	0	508	831	
12	0	0	0	0	485	831	
13	0	0	0	0	497	831	
14	0	0	0	0	576	831	
15	0	0	0	0	671	831	
0	0	0	0	0	660	831	
1	0	0	0	0	529	831	
2	0	0	0	0	481	831	
3	0	0	0	0	465	831	
4	0	0	0	0	455	831	
5	0	0	0	0	486	831	
6	0	0	0	0	466	832	
7	0	0	0	0	475	831	
8	0	0	0	0	484	831	
9	0	0	0	0	474	832	
10	0	0	0	0	489	831	
11	0	0	0	0	490	831	
12	0	0	0	0	497	831	
13	0	0	0	0	502	831	
14	0	0	0	0	508	831	
15	0	0	0	0	515	831	
0	0	0	0	0	510	831	
1	0	0	0	0	519	831	
2	0	0	0	0	520	831	
3	0	0	0	0	512	831	
4	0	0	0	0	530	831	
5	0	0	0	0	510	831	
6	0	0	0	0	528	831	
7	0	0	0	0	531	831	
8	0	0	0	0	512	831	
9	0	0	0	0	519	831	
10	0	0	0	0	515	831	
11	0	0	0	0	517	831	
12	0	0	0	0	495	831	
13	0	0	0	0	482	831	
14	0	0	0	0	494	831	
15	0	0	0	0	488	831	
0	0	0	0	0	481	831	
1	0	0	0	0	489	831	
2	0	0	0	0	493	831	
3	0	0	0	0	495	831	
4	0	0	0	0	495	832	
5	0	0	0	0	504	831	
6	0	0	0	0	510	831	
7	0	0	0	0	496	831	
8	0	0	0	0	519	831	
9	0	0	0	0	492	831	
10	0	0	0	0	513	831	
11	0	0	0	0	515	831	
12	0	0	0	0	512	831	
13	0	0	0	0	526	831	
14	0	0	0	0	501	831	
15	0	0	0	0	516	831	
0	0	0	0	0	516	831	
1	0	0	0	0	508	831	
2	0	0	0	0	524	831	
3	0	0	0	0	502	831	
4	0	0	0	0	507	831	
5	0	0	0	0	525	831	
6	0	0	0	0	507	831	
7	0	0	0	0	515	831	
8	0	0	0	0	511	831	
9	0	0	0	0	511	831	
10	0	0	0	0	515	831	
11	0	0	0	0	508	831	
12	0	0	0	0	505	831	
13	0	0	0	0	507	831	
14	0	0	0	0	503	831	
15	0	0	0	0	506	831	
0	0	0	0	0	505	831	
1	0	0	0	0	507	831	
2	0	0	0	0	504	831	
3	0	0	0	0	510	831	
4	0	0	0	0	507	831	
5	0	0	0	0	499	831	
6	0	0	0	0	526	831	
7	0	0	0	0	507	831	
8	0	0	0	0	509	831	
9	0	0	0	0	517	831	
10	0	0	0	0	511	831	
11	0	0	0	0	518	831	
12	0	0	0	0	509	831	
13	0	0	0	0	510	831	
14	0	0	0	0	513	831	
15	0	0	0	0	510	831	
0	0	0	0	0	521	831	
1	0	0	0	0	515	831	
2	0	0	0	0	516	831	
3	0	0	0	0	526	831	
4	0	0	0	0	527	831	
5	0	0	0	0	531	831	
6	0	0	0	0	528	831	
7	0	0	0	0	521	831	
8	0	0	0	0	508	831	
9	0	0	0	0	496	831	
10	0	0	0	0	511	831	
11	0	0	0	0	500	831	
12	0	0	0	0	515	831	
13	0	0	0	0	513	831	
14	0	0	0	0	496	831	
15	0	0	0	0	513	831	
0	0	0	0	0	502	831	
1	0	0	0	0	517	831	
2	0	0	0	0	487	831	
3	0	0	0	0	493	832	
4	0	0	0	0	612	832	
5	0	0	0	0	685	832	
6	0	0	0	0	647	832	
7	0	0	0	0	509	832	
8	0	0	0	0	455	832	
9	0	0	0	0	487	832	
10	0	0	0	0	465	833	
11	0	0	0	0	466	832	
12	0	0	0	0	492	832	
13	0	0	0	0	475	833	
14	0	0	0	0	479	833	
15	0	0	0	0	464	833	
0	0	0	0	0	468	832	
1	0	0	0	0	496	833	
2	0	0	0	0	487	833	
3	0	0	0	0	496	833	
4	0	0	0	0	481	833	
5	0	0	0	0	511	833	
6	0	0	0	0	521	833	
7	0	0	0	0	491	833	
8	0	0	0	0	533	833	
9	0	0	0	0	484	833	
10	0	0	0	0	534	833	
11	0	0	0	0	521	834	
12	0	0	0	0	500	834	
13	0	0	0	0	558	834	
14	0	0	0	0	517	834	
15	0	0	0	0	519	834	
0	0	0	0	0	537	834	
1	0	0	0	0	512	835	
2	0	0	0	0	520	835	
3	0	0	0	0	505	835	
4	0	0	0	0	491	835	
5	0	0	0	0	507	836	
6	0	0	0	0	487	836	
7	0	0	0	0	494	836	
8	0	0	0	0	496	836	
9	0	0	0	0	501	836	
10	0	0	0	0	496	837	
11	0	0	0	0	494	837	
12	0	0	0	0	495	837	
13	0	0	0	0	487	837	
14	0	0	0	0	501	837	
15	0	0	0	0	505	838	
0	0	0	0	0	503	838	
1	0	0	0	0	509	838	
2	0	0	0	0	490	838	
3	0	0	0	0	523	838	
4	0	0	0	0	524	838	
5	0	0	0	0	497	838	
6	0	0	0	0	523	838	
7	0	0	0	0	498	838	
8	0	0	0	0	512	838	
9	0	0	0	0	500	838	
10	0	0	0	0	496	838	
11	0	0	0	0	504	838	
12	0	0	0	0	498	838	
13	0	0	0	0	489	837	
14	0	0	0	0	510	837	
15	0	0	0	0	512	837	
0	0	0	0	0	502	838	
1	0	0	0	0	517	838	
2	0	0	0	0	511	837	
3	0	0	0	0	491	837	
4	0	0	0	0	504	838	
5	0	0	0	0	507	837	
6	0	0	0	0	516	837	
7	0	0	0	0	503	837	
8	0	0	0	0	510	838	
9	0	0	0	0	499	837	
10	0	0	0	0	520	837	
11	0	0	0	0	496	837	
12	0	0	0	0	511	837	
13	0	0	0	0	505	837	
14	0	0	0	0	497	837	
15	0	0	0	0	524	837	
0	0	0	0	0	501	837	
1	0	0	0	0	505	837	
2	0	0	0	0	518	836	
3	0	0	0	0	496	837	
4	0	0	0	0	508	837	
5	0	0	0	0	511	837	
6	0	0	0	0	507	836	
7	0	0	0	0	514	836	
8	0	0	0	0	512	836	
9	0	0	0	0	538	836	
10	0	0	0	0	518	836	
11	0	0	0	0	515	836	
12	0	0	0	0	531	835	
13	0	0	0	0	504	836	
14	0	0	0	0	508	835	
15	0	0	0	0	496	836	
0	0	0	0	0	511	835	
1	0	0	0	0	505	835	
2	0	0	0	0	504	836	
3	0	0	0	0	512	835	
4	0	0	0	0	499	835	
5	0	0	0	0	505	835	
6	0	0	0	0	522	835	
7	0	0	0	0	507	835	
8	0	0	0	0	510	835	
9	0	0	0	0	545	835	
10	0	0	0	0	652	835	
11	0	0	0	0	648	835	
12	0	0	0	0	524	835	
13	0	0	0	0	491	835	
14	0	0	0	0	486	835	
15	0	0	0	0	479	835	
0	0	0	0	0	490	835	
1	0	0	0	0	493	834	
2	0	0	0	0	500	834	
3	0	0	0	0	484	834	
4	0	0	0	0	496	834	
5	0	0	0	0	503	834	
6	0	0	0	0	499	834	
7	0	0	0	0	510	834	
8	0	0	0	0	494	834	
9	0	0	0	0	510	834	
10	0	0	0	0	515	834	
11	0	0	0	0	513	834	
12	0	0	0	0	526	833	
13	0	0	0	0	521	834	
14	0	0	0	0	531	834	
15	0	0	0	0	529	834	
0	0	0	0	0	524	834	
1	0	0	0	0	540	833	
2	0	0	0	0	528	834	
3	0	0	0	0	539	833	
4	0	0	0	0	542	834	
5	0	0	0	0	530	833	
6	0	0	0	0	519	833	
7	0	0	0	0	493	833	
8	0	0	0	0	500	833	
9	0	0	0	0	490	833	
10	0	0	0	0	472	834	
11	0	0	0	0	482	833	
12	0	0	0	0	475	833	
13	0	0	0	0	477	833	
14	0	0	0	0	484	833	
15	0	0	0	0	487	833	
0	0	0	0	0	484	833	
1	0	0	0	0	484	833	
2	0	0	0	0	509	833	
3	0	0	0	0	497	833	
4	0	0	0	0	497	833	
5	0	0	0	0	507	833	
6	0	0	0	0	504	833	
7	0	0	0	0	501	833	
8	0	0	0	0	511	833	
9	0	0	0	0	493	833	
10	0	0	0	0	507	833	
11	0	0	0	0	498	833	
12	0	0	0	0	500	833	
13	0	0	0	0	505	833	
14	0	0	0	0	502	833	
15	0	0	0	0	511	833	
0	0	0	0	0	494	833	
1	0	0	0	0	498	833	
2	0	0	0	0	501	833	
3	0	0	0	0	504	832	
4	0	0	0	0	515	833	
5	0	0	0	0	502	833	
6	0	0	0	0	508	833	
7	0	0	0	0	515	832	
8	0	0	0	0	504	832	
9	0	0	0	0	521	832	
10	0	0	0	0	512	832	
11	0	0	0	0	509	832	
12	0	0	0	0	510	832	
13	0	0	0	0	504	832	
14	0	0	0	0	516	832	
15	0	0	0	0	514	832	
0	0	0	0	0	523	832	
1	0	0	0	0	518	832	
2	0	0	0	0	514	832	
3	0	0	0	0	517	832	
4	0	0	0	0	515	832	
5	0	0	0	0	521	832	
6	0	0	0	0	524	832	
7	0	0	0	0	521	832	
8	0	0	0	0	532	832	
9	0	0	0	0	510	832	
10	0	0	0	0	518	832	
11	0	0	0	0	528	832	
12	0	0	0	0	505	832	
13	0	0	0	0	512	831	
14	0	0	0	0	508	832	
15	0	0	0	0	489	832	
0	0	0	0	0	505	832	
1	0	0	0	0	497	832	
2	0	0	0	0	518	832	
3	0	0	0	0	501	832	
4	0	0	0	0	517	832	
5	0	0	0	0	515	832	
6	0	0	0	0	483	832	
7	0	0	0	0	609	831	
8	0	0	0	0	675	832	
9	0	0	0	0	647	832	
10	0	0	0	0	510	832	
11	0	0	0	0	465	832	
12	0	0	0	0	479	832	
13	0	0	0	0	468	832	
14	0	0	0	0	472	831	
15	0	0	0	0	489	832	
0	0	0	0	0	470	832	
1	0	0	0	0	486	831	
2	0	0	0	0	472	831	
3	0	0	0	0	481	832	
4	0	0	0	0	492	832	
5	0	0	0	0	490	832	
6	0	0	0	0	498	832	
7	0	0	0	0	485	832	
8	0	0	0	0	502	832	
9	0	0	0	0	496	832	
10	0	0	0	0	512	832	
11	0	0	0	0	522	831	
12	0	0	0	0	512	832	
13	0	0	0	0	533	832	
14	0	0	0	0	542	832	
15	0	0	0	0	536	832	
0	0	0	0	0	555	831	
1	0	0	0	0	532	831	
2	0	0	0	0	538	832	
3	0	0	0	0	528	832	
4	0	0	0	0	521	832	
5	0	0	0	0	518	832	
6	0	0	0	0	497	832	
7	0	0	0	0	497	831	
8	0	0	0	0	489	831	
9	0	0	0	0	479	832	
10	0	0	0	0	501	831	
11	0	0	0	0	476	832	
12	0	0	0	0	494	832	
13	0	0	0	0	502	832	
14	0	0	0	0	486	832	
15	0	0	0	0	515	832	
0	0	0	0	0	491	832	
1	0	0	0	0	495	832	
2	0	0	0	0	511	831	
3	0	0	0	0	497	832	
4	0	0	0	0	515	832	
5	0	0	0	0	511	832	
6	0	0	0	0	495	832	
7	0	0	0	0	516	832	
8	0	0	0	0	493	832	
9	0	0	0	0	529	831	
10	0	0	0	0	503	832	
11	0	0	0	0	501	832	
12	0	0	0	0	504	832	
13	0	0	0	0	514	832	
14	0	0	0	0	501	831	
15	0	0	0	0	503	832	
0	0	0	0	0	507	831	
1	0	0	0	0	514	831	
2	0	0	0	0	507	832	
3	0	0	0	0	523	832	
4	0	0	0	0	497	832	
5	0	0	0	0	521	831	
6	0	0	0	0	518	831	
7	0	0	0	0	504	832	
8	0	0	0	0	524	832	
9	0	0	0	0	507	832	
10	0	0	0	0	514	832	
11	0	0	0	0	523	831	
12	0	0	0	0	500	832	
13	0	0	0	0	512	831	
14	0	0	0	0	511	832	
15	0	0	0	0	511	831	
0	0	0	0	0	522	831	
1	0	0	0	0	500	831	
2	0	0	0	0	520	831	
3	0	0	0	0	509	831	
4	0	0	0	0	512	831	
5	0	0	0	0	521	831	
6	0	0	0	0	505	832	
7	0	0	0	0	521	831	
8	0	0	0	0	504	831	
9	0	0	0	0	519	831	
10	0	0	0	0	511	831	
11	0	0	0	0	494	831	
12	0	0	0	0	515	831	
13	0	0	0	0	503	832	
14	0	0	0	0	508	831	
15	0	0	0	0	519	831	
0	0	0	0	0	513	832	
1	0	0	0	0	524	831	
2	0	0	0	0	521	831	
3	0	0	0	0	525	831	
4	0	0	0	0	529	831	
5	0	0	0	0	511	831	
6	0	0	0	0	525	831	
7	0	0	0	0	490	831	
8	0	0	0	0	497	831	
9	0	0	0	0	513	831	
10	0	0	0	0	491	831	
11	0	0	0	0	505	831	
12	0	0	0	0	502	831	
13	0	0	0	0	506	831	
14	0	0	0	0	512	831	
15	0	0	0	0	490	831	
0	0	0	0	0	489	831	
1	0	0	0	0	491	831	
2	0	0	0	0	593	831	
3	0	0	0	0	708	831	
4	0	0	0	0	658	831	
5	0	0	0	0	523	831	
6	0	0	0	0	480	831	
7	0	0	0	0	475	831	
8	0	0	0	0	470	831	
9	0	0	0	0	454	831	
10	0	0	0	0	475	831	
11	0	0	0	0	463	831	
12	0	0	0	0	479	831	
13	0	0	0	0	483	831	
14	0	0	0	0	487	831	
15	0	0	0	0	500	831	
0	0	0	0	0	499	831	
1	0	0	0	0	497	831	
2	0	0	0	0	497	831	
3	0	0	0	0	494	831	
4	0	0	0	0	517	831	
5	0	0	0	0	504	831	
6	0	0	0	0	519	831	
7	0	0	0	0	525	831	
8	0	0	0	0	525	831	
9	0	0	0	0	517	831	
10	0	0	0	0	528	831	
11	0	0	0	0	535	831	
12	0	0	0	0	542	831	
13	0	0	0	0	536	831	
14	0	0	0	0	538	831	
15	0	0	0	0	527	831	
0	0	0	0	0	509	831	
1	0	0	0	0	519	831	
2	0	0	0	0	497	831	
3	0	0	0	0	501	831	
4	0	0	0	0	471	831	
5	0	0	0	0	492	830	
6	0	0	0	0	492	831	
7	0	0	0	0	490	831	
8	0	0	0	0	498	831	
9	0	0	0	0	488	831	
10	0	0	0	0	497	831	
11	0	0	0	0	524	831	
12	0	0	0	0	493	831	
13	0	0	0	0	508	831	
14	0	0	0	0	500	831	
15	0	0	0	0	505	830	
0	0	0	0	0	508	830	
1	0	0	0	0	506	831	
2	0	0	0	0	509	830	
3	0	0	0	0	499	831	
4	0	0	0	0	505	830	
5	0	0	0	0	511	830	
6	0	0	0	0	492	830	
7	0	0	0	0	510	830	
8	0	0	0	0	499	830	
9	0	0	0	0	507	830	
10	0	0	0	0	505	830	
11	0	0	0	0	506	831	
12	0	0	0	0	509	830	
13	0	0	0	0	501	830	
14	0	0	0	0	500	830	
15	0	0	0	0	513	830	
0	0	0	0	0	492	831	
1	0	0	0	0	509	830	
2	0	0	0	0	510	831	
3	0	0	0	0	508	830	
4	0	0	0	0	515	830	
5	0	0	0	0	512	830	
6	0	0	0	0	518	830	
7	0	0	0	0	510	830	
8	0	0	0	0	518	830	
9	0	0	0	0	523	830	
10	0	0	0	0	505	830	
11	0	0	0	0	514	830	
12	0	0	0	0	499	830	
13	0	0	0	0	500	830	
14	0	0	0	0	511	830	
15	0	0	0	0	500	830	
0	0	0	0	0	527	830	
1	0	0	0	0	497	830	
2	0	0	0	0	503	830	
3	0	0	0	0	505	830	
4	0	0	0	0	493	830	
5	0	0	0	0	514	830	
6	0	0	0	0	496	830	
7	0	0	0	0	515	830	
8	0	0	0	0	539	830	
9	0	0	0	0	518	830	
10	0	0	0	0	515	830	
11	0	0	0	0	536	830	
12	0	0	0	0	514	830	
13	0	0	0	0	526	829	
14	0	0	0	0	505	830	
15	0	0	0	0	500	830	
0	0	0	0	0	488	830	
1	0	0	0	0	495	829	
2	0	0	0	0	501	829	
3	0	0	0	0	488	829	
4	0	0	0	0	490	829	
5	0	0	0	0	486	829	
6	0	0	0	0	499	829	
7	0	0	0	0	506	829	
8	0	0	0	0	496	829	
9	0	0	0	0	518	829	
10	0	0	0	0	533	829	
11	0	0	0	0	664	829	
12	0	0	0	0	678	829	
13	0	0	0	0	599	829	
14	0	0	0	0	499	829	
15	0	0	0	0	497	829	
0	0	0	0	0	500	829	
1	0	0	0	0	505	829	
2	0	0	0	0	490	829	
3	0	0	0	0	502	829	
4	0	0	0	0	510	829	
5	0	0	0	0	498	829	
6	0	0	0	0	524	829	
7	0	0	0	0	487	829	
8	0	0	0	0	509	829	
9	0	0	0	0	483	829	
10	0	0	0	0	474	829	
11	0	0	0	0	465	829	
12	0	0	0	0	487	829	
13	0	0	0	0	524	829	
14	0	0	0	0	518	829	
15	0	0	0	0	495	829	
0	0	0	0	0	519	829	
1	0	0	0	0	486	829	
2	0	0	0	0	513	829	
3	0	0	0	0	483	828	
4	0	0	0	0	500	829	
5	0	0	0	0	527	829	
6	0	0	0	0	499	829	
7	0	0	0	0	528	829	
8	0	0	0	0	536	829	
9	0	0	0	0	515	829	
10	0	0	0	0	496	829	
11	0	0	0	0	480	829	
12	0	0	0	0	469	829	
13	0	0	0	0	485	829	
14	0	0	0	0	512	829	
15	0	0	0	0	519	829	
0	0	0	0	0	521	829	
1	0	0	0	0	531	829	
2	0	0	0	0	550	829	
3	0	0	0	0	548	829	
4	0	0	0	0	589	829	
5	0	0	0	0	576	829	
6	0	0	0	0	560	829	
7	0	0	0	0	518	829	
8	0	0	0	0	505	829	
9	0	0	0	0	520	828	
10	0	0	0	0	489	828	
11	0	0	0	0	510	829	
12	0	0	0	0	512	829	
13	0	0	0	0	531	829	
14	0	0	0	0	517	828	
15	0	0	0	0	501	828	
0	0	0	0	0	477	829	
1	0	0	0	0	455	829	
2	0	0	0	0	472	828	
3	0	0	0	0	452	829	
4	0	0	0	0	497	829	
5	0	0	0	0	524	828	
6	0	0	0	0	502	828	
7	0	0	0	0	516	828	
8	0	0	0	0	501	828	
9	0	0	0	0	417	828	
10	0	0	0	0	423	829	
11	0	0	0	0	536	829	
12	0	0	0	0	558	828	
13	0	0	0	0	532	828	
14	0	0	0	0	490	829	
15	0	0	0	0	508	828	
0	0	0	0	0	476	828	
1	0	0	0	0	486	828	
2	0	0	0	0	505	828	
3	0	0	0	0	511	828	
4	0	0	0	0	526	829	
5	0	0	0	0	528	828	
6	0	0	0	0	536	828	
7	0	0	0	0	525	828	
8	0	0	0	0	518	828	
9	0	0	0	0	525	828	
10	0	0	0	0	525	828	
11	0	0	0	0	505	828	
12	0	0	0	0	520	828	
13	0	0	0	0	495	828	
14	0	0	0	0	505	828	
15	0	0	0	0	495	828	
0	0	0	0	0	521	828	
1	0	0	0	0	545	828	
2	0	0	0	0	516	828	
3	0	0	0	0	525	828	
4	0	0	0	0	503	828	
5	0	0	0	0	507	828	
6	0	0	0	0	509	828	
7	0	0	0	0	488	828	
8	0	0	0	0	509	828	
9	0	0	0	0	512	828	
10	0	0	0	0	649	828	
11	0	0	0	0	664	828	
12	0	0	0	0	579	828	
13	0	0	0	0	481	828	
14	0	0	0	0	458	828	
15	0	0	0	0	462	828	
0	0	0	0	0	452	828	
1	0	0	0	0	451	828	
2	0	0	0	0	473	828	
3	0	0	0	0	465	828	
4	0	0	0	0	481	828	
5	0	0	0	0	486	828	
6	0	0	0	0	459	828	
7	0	0	0	0	483	828	
8	0	0	0	0	484	828	
9	0	0	0	0	504	828	
10	0	0	0	0	515	828	
11	0	0	0	0	525	828	
12	0	0	0	0	554	828	
13	0	0	0	0	539	828	
14	0	0	0	0	529	828	
15	0	0	0	0	531	828	
0	0	0	0	0	517	828	
1	0	0	0	0	549	828	
2	0	0	0	0	548	828	
3	0	0	0	0	561	828	
4	0	0	0	0	553	828	
5	0	0	0	0	529	828	
6	0	0	0	0	543	828	
7	0	0	0	0	509	828	
8	0	0	0	0	510	828	
9	0	0	0	0	504	828	
10	0	0	0	0	499	828	
11	0	0	0	0	496	828	
12	0	0	0	0	493	828	
13	0	0	0	0	513	828	
14	0	0	0	0	520	828	
15	0	0	0	0	491	828	
0	0	0	0	0	518	828	
1	0	0	0	0	513	828	
2	0	0	0	0	524	828	
3	0	0	0	0	511	828	
4	0	0	0	0	506	828	
5	0	0	0	0	517	828	
6	0	0	0	0	528	828	
7	0	0	0	0	509	828	
8	0	0	0	0	532	828	
9	0	0	0	0	519	828	
10	0	0	0	0	539	828	
11	0	0	0	0	525	828	
12	0	0	0	0	543	828	
13	0	0	0	0	555	827	
14	0	0	0	0	540	828	
15	0	0	0	0	512	827	
0	0	0	0	0	487	828	
1	0	0	0	0	497	827	
2	0	0	0	0	499	828	
3	0	0	0	0	504	828	
4	0	0	0	0	521	828	
5	0	0	0	0	532	828	
6	0	0	0	0	534	828	
7	0	0	0	0	543	828	
8	0	0	0	0	513	828	
9	0	0	0	0	540	828	
10	0	0	0	0	516	828	
11	0	0	0	0	520	828	
12	0	0	0	0	538	828	
13	0	0	0	0	481	828	
14	0	0	0	0	494	828	
15	0	0	0	0	494	828	
0	0	0	0	0	511	828	
1	0	0	0	0	502	828	
2	0	0	0	0	518	828	
3	0	0	0	0	508	828	
4	0	0	0	0	505	828	
5	0	0	0	0	481	827	
6	0	0	0	0	445	828	
7	0	0	0	0	445	828	
8	0	0	0	0	452	828	
9	0	0	0	0	398	828	
10	0	0	0	0	415	828	
11	0	0	0	0	438	828	
12	0	0	0	0	449	828	
13	0	0	0	0	441	828	
14	0	0	0	0	443	828	
15	0	0	0	0	454	828	
0	0	0	0	0	487	828	
1	0	0	0	0	459	829	
2	0	0	0	0	510	829	
3	0	0	0	0	484	829	
4	0	0	0	0	481	829	
5	0	0	0	0	604	829	
6	0	0	0	0	610	829	
7	0	0	0	0	615	829	
8	0	0	0	0	446	830	
9	0	0	0	0	425	830	
10	0	0	0	0	409	830	
11	0	0	0	0	441	830	
12	0	0	0	0	397	830	
13	0	0	0	0	380	830	
14	0	0	0	0	412	830	
15	0	0	0	0	411	830	
0	0	0	0	0	436	830	
1	0	0	0	0	434	830	
2	0	0	0	0	470	830	
3	0	0	0	0	491	830	
4	0	0	0	0	472	831	
5	0	0	0	0	459	831	
6	0	0	0	0	517	831	
7	0	0	0	0	437	831	
8	0	0	0	0	484	831	
9	0	0	0	0	486	831	
10	0	0	0	0	504	831	
11	0	0	0	0	537	831	
12	0	0	0	0	547	831	
13	0	0	0	0	560	831	
14	0	0	0	0	551	831	
15	0	0	0	0	606	831	
0	0	0	0	0	610	831	
1	0	0	0	0	582	831	
2	0	0	0	0	635	832	
3	0	0	0	0	598	832	
4	0	0	0	0	596	831	
5	0	0	0	0	627	832	
6	0	0	0	0	613	831	
7	0	0	0	0	618	832	
8	0	0	0	0	606	832	
9	0	0	0	0	575	831	
10	0	0	0	0	572	832	
11	0	0	0	0	626	831	
12	0	0	0	0	604	832	
13	0	0	0	0	624	832	
14	0	0	0	0	606	832	
15	0	0	0	0	646	833	
0	0	0	0	0	532	832	
1	0	0	0	0	638	833	
2	0	0	0	0	531	832	
3	0	0	0	0	565	832	
4	0	0	0	0	565	833	
5	0	0	0	0	524	832	
6	0	0	0	0	581	833	
7	0	0	0	0	519	833	
8	0	0	0	0	512	832	
9	0	0	0	0	572	833	
10	0	0	0	0	532	832	
11	0	0	0	0	608	832	
12	0	0	0	0	553	832	
13	0	0	0	0	572	832	
14	0	0	0	0	610	832	
15	0	0	0	0	512	831	
0	0	0	0	0	568	832	
1	0	0	0	0	582	832	
2	0	0	0	0	563	832	
3	0	0	0	0	581	832	
4	0	0	0	0	530	831	
5	0	0	0	0	604	832	
6	0	0	0	0	531	832	
7	0	0	0	0	489	831	
8	0	0	0	0	548	832	
9	0	0	0	0	465	831	
10	0	0	0	0	517	831	
11	0	0	0	0	480	831	
12	0	0	0	0	518	831	
13	0	0	0	0	520	832	
14	0	0	0	0	475	831	
15	0	0	0	0	536	832	
0	0	0	0	0	526	831	
1	0	0	0	0	518	831	
2	0	0	0	0	559	832	
3	0	0	0	0	440	831	
4	0	0	0	0	577	832	
5	0	0	0	0	584	831	
6	0	0	0	0	531	831	
7	0	0	0	0	515	832	
8	0	0	0	0	396	831	
9	0	0	0	0	409	832	
10	0	0	0	0	429	831	
11	0	0	0	0	382	832	
12	0	0	0	0	411	832	
13	0	0	0	0	363	832	
14	0	0	0	0	459	832	
15	0	0	0	0	428	832	
0	0	0	0	0	432	832	
1	0	0	0	0	452	832	
2	0	0	0	0	412	832	
3	0	0	0	0	464	832	
4	0	0	0	0	452	833	
5	0	0	0	0	393	832	
6	0	0	0	0	449	833	
7	0	0	0	0	393	832	
8	0	0	0	0	440	833	
9	0	0	0	0	435	833	
10	0	0	0	0	443	833	
11	0	0	0	0	483	833	
12	0	0	0	0	439	833	
13	0	0	0	0	504	833	
14	0	0	0	0	482	833	
15	0	0	0	0	436	833	
0	0	0	0	0	541	833	
1	0	0	0	0	460	834	
2	0	0	0	0	477	834	
3	0	0	0	0	460	835	
4	0	0	0	0	448	834	
5	0	0	0	0	452	835	
6	0	0	0	0	430	835	
7	0	0	0	0	489	835	
8	0	0	0	0	396	835	
9	0	0	0	0	404	835	
10	0	0	0	0	436	835	
11	0	0	0	0	400	835	
12	0	0	0	0	453	836	
13	0	0	0	0	494	836	
14	0	0	0	0	520	836	
15	0	0	0	0	552	837	
0	0	0	0	0	483	836	
1	0	0	0	0	546	837	
2	0	0	0	0	527	837	
3	0	0	0	0	520	837	
4	0	0	0	0	546	838	
5	0	0	0	0	472	837	
6	0	0	0	0	611	837	
7	0	0	0	0	469	838	
8	0	0	0	0	469	837	
9	0	0	0	0	552	838	
10	0	0	0	0	473	836	
11	0	0	0	0	531	837	
12	0	0	0	0	542	837	
13	0	0	0	0	486	837	
14	0	0	0	0	514	837	
15	0	0	0	0	480	836	
0	0	0	0	0	463	837	
1	0	0	0	0	468	837	
2	0	0	0	0	526	836	
3	0	0	0	0	475	837	
4	0	0	0	0	463	837	
5	0	0	0	0	480	837	
6	0	0	0	0	435	837	
7	0	0	0	0	479	836	
8	0	0	0	0	473	836	
9	0	0	0	0	425	835	
10	0	0	0	0	470	836	
11	0	0	0	0	411	836	
12	0	0	0	0	471	835	
13	0	0	0	0	442	836	
14	0	0	0	0	414	835	
15	0	0	0	0	449	835	
0	0	0	0	0	404	835	
1	0	0	0	0	424	835	
2	0	0	0	0	470	835	
3	0	0	0	0	443	834	
4	0	0	0	0	472	834	
5	0	0	0	0	462	834	
6	0	0	0	0	482	834	
7	0	0	0	0	474	834	
8	0	0	0	0	475	833	
9	0	0	0	0	632	834	
10	0	0	0	0	644	834	
11	0	0	0	0	577	833	
12	0	0	0	0	479	834	
13	0	0	0	0	418	833	
14	0	0	0	0	528	834	
15	0	0	0	0	480	834	
0	0	0	0	0	467	833	
1	0	0	0	0	523	834	
2	0	0	0	0	465	833	
3	0	0	0	0	590	834	
4	0	0	0	0	562	835	
5	0	0	0	0	575	835	
6	0	0	0	0	532	836	
7	0	0	0	0	527	835	
8	0	0	0	0	599	836	
9	0	0	0	0	527	836	
10	0	0	0	0	563	835	
11	0	0	0	0	556	835	
12	0	0	0	0	524	834	
13	0	0	0	0	581	834	
14	0	0	0	0	523	833	
15	0	0	0	0	546	832	
0	0	0	0	0	563	832	
1	0	0	0	0	527	831	
2	0	0	0	0	569	832	
3	0	0	0	0	515	832	
4	0	0	0	0	537	832	
5	0	0	0	0	481	833	
6	0	0	0	0	547	832	
7	0	0	0	0	565	833	
8	0	0	0	0	522	833	
9	0	0	0	0	688	833	
10	0	0	0	0	588	833	
11	0	0	0	0	635	833	
12	0	0	0	0	654	834	
13	0	0	0	0	646	834	
14	0	0	0	0	719	834	
15	0	0	0	0	629	835	
0	0	0	0	0	600	835	
1	0	0	0	0	671	835	
2	0	0	0	0	630	836	
3	0	0	0	0	588	836	
4	0	0	0	0	618	837	
5	0	0	0	0	553	837	
6	0	0	0	0	632	837	
7	0	0	0	0	568	837	
8	0	0	0	0	563	837	
9	0	0	0	0	585	837	
10	0	0	0	0	479	837	
11	0	0	0	0	534	838	
12	0	0	0	0	512	838	
13	0	0	0	0	518	838	
14	0	0	0	0	499	838	
15	0	0	0	0	458	838	
0	0	0	0	0	489	839	
1	0	0	0	0	484	839	
2	0	0	0	0	424	838	
3	0	0	0	0	448	839	
4	0	0	0	0	441	839	
5	0	0	0	0	472	839	
6	0	0	0	0	460	839	
7	0	0	0	0	462	839	
8	0	0	0	0	473	839	
9	0	0	0	0	478	839	
10	0	0	0	0	497	840	
11	0	0	0	0	473	840	
12	0	0	0	0	513	840	
13	0	0	0	0	487	840	
14	0	0	0	0	516	841	
15	0	0	0	0	523	841	
0	0	0	0	0	506	841	
1	0	0	0	0	560	841	
2	0	0	0	0	554	841	
3	0	0	0	0	539	842	
4	0	0	0	0	544	843	
5	0	0	0	0	551	843	
6	0	0	0	0	545	843	
7	0	0	0	0	565	843	
8	0	0	0	0	539	843	
9	0	0	0	0	597	844	
10	0	0	0	0	581	844	
11	0	0	0	0	496	844	
12	0	0	0	0	532	844	
13	0	0	0	0	588	844	
14	0	0	0	0	584	845	
15	0	0	0	0	526	845	
0	0	0	0	0	546	845	
1	0	0	0	0	512	845	
2	0	0	0	0	612	845	
3	0	0	0	0	739	846	
4	0	0	0	0	668	846	
5	0	0	0	0	561	846	
6	0	0	0	0	576	846	
7	0	0	0	0	461	846	
8	0	0	0	0	513	847	
9	0	0	0	0	504	847	
10	0	0	0	0	502	847	
11	0	0	0	0	526	847	
12	0	0	0	0	490	847	
13	0	0	0	0	517	847	
14	0	0	0	0	485	847	
15	0	0	0	0	511	847	
0	0	0	0	0	489	847	
1	0	0	0	0	513	847	
2	0	0	0	0	504	848	
3	0	0	0	0	489	848	
4	0	0	0	0	482	848	
5	0	0	0	0	503	848	
6	0	0	0	0	481	848	
7	0	0	0	0	475	848	
8	0	0	0	0	488	848	
9	0	0	0	0	457	848	
10	0	0	0	0	492	849	
11	0	0	0	0	448	849	
12	0	0	0	0	432	849	
13	0	0	0	0	462	849	
14	0	0	0	0	443	849	
15	0	0	0	0	457	850	
0	0	0	0	0	419	849	
1	0	0	0	0	421	850	
2	0	0	0	0	462	850	
3	0	0	0	0	465	850	
4	0	0	0	0	386	850	
5	0	0	0	0	414	849	
6	0	0	0	0	448	850	
7	0	0	0	0	409	850	
8	0	0	0	0	432	850	
9	0	0	0	0	410	850	
10	0	0	0	0	433	850	
11	0	0	0	0	397	850	
12	0	0	0	0	400	850	
13	0	0	0	0	382	850	
14	0	0	0	0	371	850	
15	0	0	0	0	416	850	
0	0	0	0	0	409	850	
1	0	0	0	0	456	849	
2	0	0	0	0	389	850	
3	0	0	0	0	419	850	
4	0	0	0	0	394	850	
5	0	0	0	0	450	849	
6	0	0	0	0	483	850	
7	0	0	0	0	448	851	
8	0	0	0	0	473	851	
9	0	0	0	0	486	851	
10	0	0	0	0	540	851	
11	0	0	0	0	557	851	
12	0	0	0	0	619	851	
13	0	0	0	0	575	851	
14	0	0	0	0	580	850	
15	0	0	0	0	640	850	
0	0	0	0	0	594	849	
1	0	0	0	0	653	849	
2	0	0	0	0	587	850	
3	0	0	0	0	623	850	
4	0	0	0	0	609	850	
5	0	0	0	0	600	851	
6	0	0	0	0	590	851	
7	0	0	0	0	589	851	
8	0	0	0	0	518	851	
9	0	0	0	0	542	851	
10	0	0	0	0	471	851	
11	0	0	0	0	430	851	
12	0	0	0	0	412	851	
13	0	0	0	0	499	852	
14	0	0	0	0	521	852	
15	0	0	0	0	480	851	
0	0	0	0	0	619	853	
1	0	0	0	0	552	853	
2	0	0	0	0	616	855	
3	0	0	0	0	586	854	
4	0	0	0	0	540	855	
5	0	0	0	0	638	856	
6	0	0	0	0	475	855	
7	0	0	0	0	599	857	
8	0	0	0	0	506	855	
9	0	0	0	0	417	855	
10	0	0	0	0	636	858	
11	0	0	0	0	430	855	
12	0	0	0	0	559	858	
13	0	0	0	0	540	856	
14	0	0	0	0	396	856	
15	0	0	0	0	601	859	
0	0	0	0	0	373	855	
1	0	0	0	0	596	859	
2	0	0	0	0	604	856	
3	0	0	0	0	470	856	
4	0	0	0	0	683	860	
5	0	0	0	0	325	856	
6	0	0	0	0	527	860	
7	0	0	0	0	514	856	
8	0	0	0	0	296	857	
9	0	0	0	0	712	861	
10	0	0	0	0	368	856	
11	0	0	0	0	543	860	
12	0	0	0	0	510	858	
13	0	0	0	0	357	858	
14	0	0	0	0	706	862	
15	0	0	0	0	362	857	
0	0	0	0	0	562	862	
1	0	0	0	0	520	859	
2	0	0	0	0	319	859	
3	0	0	0	0	705	863	
4	0	0	0	0	385	858	
5	0	0	0	0	559	863	
6	0	0	0	0	539	860	
7	0	0	0	0	387	860	
8	0	0	0	0	718	864	
9	0	0	0	0	412	859	
10	0	0	0	0	630	863	
11	0	0	0	0	588	860	
12	0	0	0	0	409	860	
13	0	0	0	0	732	864	
14	0	0	0	0	435	860	
15	0	0	0	0	557	864	
0	0	0	0	0	545	862	
1	0	0	0	0	327	861	
2	0	0	0	0	685	865	
3	0	0	0	0	387	860	
4	0	0	0	0	564	865	
5	0	0	0	0	511	862	
6	0	0	0	0	336	862	
7	0	0	0	0	728	866	
8	0	0	0	0	356	862	
9	0	0	0	0	578	866	
10	0	0	0	0	496	863	
11	0	0	0	0	374	863	
12	0	0	0	0	713	867	
13	0	0	0	0	398	862	
14	0	0	0	0	547	866	
15	0	0	0	0	551	864	
0	0	0	0	0	340	864	
1	0	0	0	0	727	868	
2	0	0	0	0	404	863	
3	0	0	0	0	531	867	
4	0	0	0	0	534	864	
5	0	0	0	0	359	864	
6	0	0	0	0	719	868	
7	0	0	0	0	453	864	
8	0	0	0	0	610	867	
9	0	0	0	0	551	865	
10	0	0	0	0	368	864	
11	0	0	0	0	708	869	
12	0	0	0	0	401	864	
13	0	0	0	0	617	868	
14	0	0	0	0	536	866	
15	0	0	0	0	401	866	
0	0	0	0	0	783	870	
1	0	0	0	0	418	865	
2	0	0	0	0	580	869	
3	0	0	0	0	479	867	
4	0	0	0	0	305	866	
5	0	0	0	0	695	871	
6	0	0	0	0	322	866	
7	0	0	0	0	516	870	
8	0	0	0	0	453	868	
9	0	0	0	0	289	867	
10	0	0	0	0	732	872	
11	0	0	0	0	353	867	
12	0	0	0	0	488	871	
13	0	0	0	0	480	869	
14	0	0	0	0	302	868	
15	0	0	0	0	647	873	
0	0	0	0	0	351	869	
1	0	0	0	0	452	873	
2	0	0	0	0	499	871	
3	0	0	0	0	281	870	
4	0	0	0	0	704	874	
5	0	0	0	0	364	870	
6	0	0	0	0	558	873	
7	0	0	0	0	700	871	
8	0	0	0	0	386	870	
9	0	0	0	0	807	875	
10	0	0	0	0	275	869	
11	0	0	0	0	495	874	
12	0	0	0	0	538	871	
13	0	0	0	0	241	870	
14	0	0	0	0	687	875	
15	0	0	0	0	401	870	
0	0	0	0	0	595	874	
1	0	0	0	0	541	871	
2	0	0	0	0	326	871	
3	0	0	0	0	719	876	
4	0	0	0	0	393	870	
5	0	0	0	0	554	875	
6	0	0	0	0	572	872	
7	0	0	0	0	319	872	
8	0	0	0	0	768	876	
9	0	0	0	0	356	871	
10	0	0	0	0	559	875	
11	0	0	0	0	606	873	
12	0	0	0	0	267	872	
13	0	0	0	0	802	876	
14	0	0	0	0	384	871	
15	0	0	0	0	605	876	
0	0	0	0	0	543	873	
1	0	0	0	0	346	872	
2	0	0	0	0	815	877	
3	0	0	0	0	419	872	
4	0	0	0	0	576	876	
5	0	0	0	0	538	873	
6	0	0	0	0	347	872	
7	0	0	0	0	707	877	
8	0	0	0	0	363	871	
9	0	0	0	0	538	876	
10	0	0	0	0	547	873	
11	0	0	0	0	277	873	
12	0	0	0	0	710	878	
13	0	0	0	0	398	872	
14	0	0	0	0	524	877	
15	0	0	0	0	491	874	
0	0	0	0	0	316	874	
1	0	0	0	0	760	878	
2	0	0	0	0	361	873	
3	0	0	0	0	599	877	
4	0	0	0	0	516	874	
5	0	0	0	0	358	873	
6	0	0	0	0	765	878	
7	0	0	0	0	402	873	
8	0	0	0	0	548	878	
9	0	0	0	0	503	874	
10	0	0	0	0	381	874	
11	0	0	0	0	723	878	
12	0	0	0	0	401	874	
13	0	0	0	0	589	877	
14	0	0	0	0	527	875	
15	0	0	0	0	319	875	
0	0	0	0	0	688	879	
1	0	0	0	0	377	874	
2	0	0	0	0	577	879	
3	0	0	0	0	527	876	
4	0	0	0	0	295	875	
5	0	0	0	0	726	880	
6	0	0	0	0	374	875	
7	0	0	0	0	516	880	
8	0	0	0	0	520	877	
9	0	0	0	0	335	876	
10	0	0	0	0	743	880	
11	0	0	0	0	344	876	
12	0	0	0	0	527	880	
13	0	0	0	0	516	877	
14	0	0	0	0	322	876	
15	0	0	0	0	744	881	
0	0	0	0	0	420	876	
1	0	0	0	0	567	880	
2	0	0	0	0	528	878	
3	0	0	0	0	334	877	
4	0	0	0	0	757	881	
5	0	0	0	0	399	876	
6	0	0	0	0	534	880	
7	0	0	0	0	495	878	
8	0	0	0	0	325	878	
9	0	0	0	0	739	882	
10	0	0	0	0	383	877	
11	0	0	0	0	558	881	
12	0	0	0	0	569	879	
13	0	0	0	0	331	878	
14	0	0	0	0	699	882	
15	0	0	0	0	423	878	
0	0	0	0	0	572	882	
1	0	0	0	0	601	879	
2	0	0	0	0	478	879	
3	0	0	0	0	826	883	
4	0	0	0	0	388	878	
5	0	0	0	0	541	882	
6	0	0	0	0	527	879	
7	0	0	0	0	300	879	
8	0	0	0	0	713	883	
9	0	0	0	0	371	878	
10	0	0	0	0	530	883	
11	0	0	0	0	471	880	
12	0	0	0	0	337	879	
13	0	0	0	0	696	883	
14	0	0	0	0	355	879	
15	0	0	0	0	520	883	
0	0	0	0	0	506	880	
1	0	0	0	0	258	880	
2	0	0	0	0	692	883	
3	0	0	0	0	295	879	
4	0	0	0	0	582	883	
5	0	0	0	0	487	880	
6	0	0	0	0	520	880	
7	0	0	0	0	558	880	
8	0	0	0	0	517	880	
9	0	0	0	0	575	880	
10	0	0	0	0	563	880	
11	0	0	0	0	562	880	
12	0	0	0	0	589	880	
13	0	0	0	0	544	880	
14	0	0	0	0	576	881	
15	0	0	0	0	532	880	
0	0	0	0	0	483	881	
1	0	0	0	0	553	881	
2	0	0	0	0	475	881	
3	0	0	0	0	519	881	
4	0	0	0	0	503	881	
5	0	0	0	0	483	881	
6	0	0	0	0	552	881	
7	0	0	0	0	502	881	
8	0	0	0	0	514	881	
9	0	0	0	0	500	881	
10	0	0	0	0	530	882	
11	0	0	0	0	537	882	
12	0	0	0	0	518	882	
13	0	0	0	0	549	882	
14	0	0	0	0	553	882	
15	0	0	0	0	532	882	
0	0	0	0	0	542	882	
1	0	0	0	0	551	882	
2	0	0	0	0	547	882	
3	0	0	0	0	528	882	
4	0	0	0	0	543	882	
5	0	0	0	0	546	883	
6	0	0	0	0	544	883	
7	0	0	0	0	547	883	
8	0	0	0	0	546	883	
9	0	0	0	0	540	883	
10	0	0	0	0	560	883	
11	0	0	0	0	547	883	
12	0	0	0	0	546	883	
13	0	0	0	0	566	884	
14	0	0	0	0	562	883	
15	0	0	0	0	558	884	
0	0	0	0	0	554	884	
1	0	0	0	0	553	883	
2	0	0	0	0	558	884	
3	0	0	0	0	512	883	
4	0	0	0	0	555	884	
5	0	0	0	0	555	884	
6	0	0	0	0	513	883	
7	0	0	0	0	556	884	
8	0	0	0	0	537	883	
9	0	0	0	0	565	884	
10	0	0	0	0	570	884	
11	0	0	0	0	550	884	
12	0	0	0	0	529	884	
13	0	0	0	0	509	884	
14	0	0	0	0	525	884	
15	0	0	0	0	479	884	
0	0	0	0	0	457	884	
1	0	0	0	0	445	884	
2	0	0	0	0	428	884	
3	0	0	0	0	514	885	
4	0	0	0	0	450	884	
5	0	0	0	0	502	884	
6	0	0	0	0	451	884	
7	0	0	0	0	359	883	
8	0	0	0	0	522	884	
9	0	0	0	0	398	881	
10	0	0	0	0	562	883	
11	0	0	0	0	615	882	
12	0	0	0	0	497	882	
13	0	0	0	0	744	884	
14	0	0	0	0	356	881	
15	0	0	0	0	550	885	
0	0	0	0	0	488	882	
1	0	0	0	0	337	882	
2	0	0	0	0	645	886	
3	0	0	0	0	361	881	
4	0	0	0	0	515	885	
5	0	0	0	0	510	883	
6	0	0	0	0	323	882	
7	0	0	0	0	687	886	
8	0	0	0	0	360	882	
9	0	0	0	0	516	885	
10	0	0	0	0	511	883	
11	0	0	0	0	367	883	
12	0	0	0	0	729	887	
13	0	0	0	0	393	882	
14	0	0	0	0	566	886	
15	0	0	0	0	495	883	
0	0	0	0	0	348	883	
1	0	0	0	0	721	887	
2	0	0	0	0	439	882	
3	0	0	0	0	554	885	
4	0	0	0	0	551	883	
5	0	0	0	0	366	883	
6	0	0	0	0	753	887	
7	0	0	0	0	387	882	
8	0	0	0	0	533	886	
9	0	0	0	0	535	884	
10	0	0	0	0	325	883	
11	0	0	0	0	694	887	
12	0	0	0	0	377	882	
13	0	0	0	0	510	886	
14	0	0	0	0	534	884	
15	0	0	0	0	332	883	
0	0	0	0	0	686	887	
1	0	0	0	0	430	882	
2	0	0	0	0	563	886	
3	0	0	0	0	524	883	
4	0	0	0	0	350	883	
5	0	0	0	0	713	887	
6	0	0	0	0	338	882	
7	0	0	0	0	532	886	
8	0	0	0	0	541	884	
9	0	0	0	0	331	883	
10	0	0	0	0	765	887	
11	0	0	0	0	384	883	
12	0	0	0	0	513	886	
13	0	0	0	0	513	884	
14	0	0	0	0	339	883	
15	0	0	0	0	718	888	
0	0	0	0	0	387	883	
1	0	0	0	0	534	886	
2	0	0	0	0	533	884	
3	0	0	0	0	342	883	
4	0	0	0	0	717	888	
5	0	0	0	0	391	883	
6	0	0	0	0	525	886	
7	0	0	0	0	566	884	
8	0	0	0	0	315	883	
9	0	0	0	0	755	888	
10	0	0	0	0	428	883	
11	0	0	0	0	524	887	
12	0	0	0	0	547	884	
13	0	0	0	0	331	883	
14	0	0	0	0	733	888	
15	0	0	0	0	370	883	
0	0	0	0	0	526	887	
1	0	0	0	0	556	884	
2	0	0	0	0	327	883	
3	0	0	0	0	752	888	
4	0	0	0	0	387	883	
5	0	0	0	0	521	887	
6	0	0	0	0	555	884	
7	0	0	0	0	324	883	
8	0	0	0	0	748	888	
9	0	0	0	0	390	883	
10	0	0	0	0	525	887	
11	0	0	0	0	556	885	
12	0	0	0	0	327	884	
13	0	0	0	0	741	888	
14	0	0	0	0	374	883	
15	0	0	0	0	476	887	
0	0	0	0	0	509	884	
1	0	0	0	0	306	883	
2	0	0	0	0	717	888	
3	0	0	0	0	375	883	
4	0	0	0	0	564	887	
5	0	0	0	0	462	884	
6	0	0	0	0	430	885	
7	0	0	0	0	665	887	
8	0	0	0	0	476	883	
9	0	0	0	0	711	887	
10	0	0	0	0	652	884	
11	0	0	0	0	398	884	
12	0	0	0	0	684	888	
13	0	0	0	0	404	883	
14	0	0	0	0	521	887	
15	0	0	0	0	517	884	
0	0	0	0	0	339	884	
1	0	0	0	0	703	888	
2	0	0	0	0	375	883	
3	0	0	0	0	556	887	
4	0	0	0	0	528	885	
5	0	0	0	0	337	884	
6	0	0	0	0	732	888	
7	0	0	0	0	399	883	
8	0	0	0	0	520	887	
9	0	0	0	0	523	885	
10	0	0	0	0	361	884	
11	0	0	0	0	706	888	
12	0	0	0	0	423	883	
13	0	0	0	0	531	887	
14	0	0	0	0	560	884	
15	0	0	0	0	348	884	
0	0	0	0	0	767	888	
1	0	0	0	0	431	883	
2	0	0	0	0	548	887	
3	0	0	0	0	584	885	
4	0	0	0	0	370	884	
5	0	0	0	0	728	888	
6	0	0	0	0	426	883	
7	0	0	0	0	508	888	
8	0	0	0	0	533	885	
9	0	0	0	0	343	884	
10	0	0	0	0	700	888	
11	0	0	0	0	380	884	
12	0	0	0	0	506	887	
13	0	0	0	0	515	885	
14	0	0	0	0	319	884	
15	0	0	0	0	706	888	
0	0	0	0	0	367	884	
1	0	0	0	0	514	887	
2	0	0	0	0	544	885	
3	0	0	0	0	332	884	
4	0	0	0	0	692	888	
5	0	0	0	0	416	884	
6	0	0	0	0	520	888	
7	0	0	0	0	542	885	
8	0	0	0	0	329	884	
9	0	0	0	0	707	889	
10	0	0	0	0	404	884	
11	0	0	0	0	543	888	
12	0	0	0	0	556	885	
13	0	0	0	0	338	885	
14	0	0	0	0	727	889	
15	0	0	0	0	391	884	
0	0	0	0	0	535	888	
1	0	0	0	0	499	886	
2	0	0	0	0	360	884	
3	0	0	0	0	714	889	
4	0	0	0	0	404	884	
5	0	0	0	0	539	888	
6	0	0	0	0	574	885	
7	0	0	0	0	360	884	
8	0	0	0	0	687	889	
9	0	0	0	0	400	884	
10	0	0	0	0	537	888	
11	0	0	0	0	563	885	
12	0	0	0	0	339	885	
13	0	0	0	0	720	888	
14	0	0	0	0	401	884	
15	0	0	0	0	575	888	
0	0	0	0	0	548	885	
1	0	0	0	0	386	885	
2	0	0	0	0	735	888	
3	0	0	0	0	433	884	
4	0	0	0	0	532	888	
5	0	0	0	0	553	886	
6	0	0	0	0	338	884	
7	0	0	0	0	705	889	
8	0	0	0	0	382	884	
9	0	0	0	0	562	888	
10	0	0	0	0	533	885	
11	0	0	0	0	345	885	
12	0	0	0	0	716	888	
13	0	0	0	0	405	884	
14	0	0	0	0	537	888	
15	0	0	0	0	527	885	
0	0	0	0	0	343	885	
1	0	0	0	0	739	888	
2	0	0	0	0	540	884	
3	0	0	0	0	658	888	
4	0	0	0	0	598	885	
5	0	0	0	0	326	884	
6	0	0	0	0	672	888	
7	0	0	0	0	368	884	
8	0	0	0	0	492	888	
9	0	0	0	0	542	885	
10	0	0	0	0	298	884	
11	0	0	0	0	708	889	
12	0	0	0	0	359	884	
13	0	0	0	0	553	888	
14	0	0	0	0	523	885	
15	0	0	0	0	322	884	
0	0	0	0	0	715	888	
1	0	0	0	0	393	884	
2	0	0	0	0	531	887	
3	0	0	0	0	534	885	
4	0	0	0	0	352	884	
5	0	0	0	0	728	888	
6	0	0	0	0	431	883	
7	0	0	0	0	543	887	
8	0	0	0	0	591	885	
9	0	0	0	0	343	884	
10	0	0	0	0	756	888	
11	0	0	0	0	429	883	
12	0	0	0	0	543	887	
13	0	0	0	0	577	885	
14	0	0	0	0	364	884	
15	0	0	0	0	747	888	
0	0	0	0	0	427	883	
1	0	0	0	0	515	887	
2	0	0	0	0	522	884	
3	0	0	0	0	332	883	
4	0	0	0	0	707	888	
5	0	0	0	0	367	883	
6	0	0	0	0	515	886	
7	0	0	0	0	560	885	
8	0	0	0	0	327	883	
9	0	0	0	0	714	888	
10	0	0	0	0	403	883	
11	0	0	0	0	508	886	
12	0	0	0	0	538	884	
13	0	0	0	0	343	883	
14	0	0	0	0	729	888	
15	0	0	0	0	403	883	
0	0	0	0	0	510	886	
1	0	0	0	0	568	884	
2	0	0	0	0	329	883	
3	0	0	0	0	718	888	
4	0	0	0	0	427	883	
5	0	0	0	0	509	886	
6	0	0	0	0	572	884	
7	0	0	0	0	379	883	
8	0	0	0	0	721	888	
9	0	0	0	0	384	883	
10	0	0	0	0	508	886	
11	0	0	0	0	567	884	
12	0	0	0	0	348	883	
13	0	0	0	0	733	887	
14	0	0	0	0	409	883	
15	0	0	0	0	547	886	
0	0	0	0	0	559	884	
1	0	0	0	0	356	882	
2	0	0	0	0	741	887	
3	0	0	0	0	410	883	
4	0	0	0	0	536	886	
5	0	0	0	0	568	884	
6	0	0	0	0	360	883	
7	0	0	0	0	743	888	
8	0	0	0	0	413	882	
9	0	0	0	0	544	886	
10	0	0	0	0	562	884	
11	0	0	0	0	319	883	
12	0	0	0	0	735	887	
13	0	0	0	0	399	882	
14	0	0	0	0	501	886	
15	0	0	0	0	535	884	
0	0	0	0	0	332	883	
1	0	0	0	0	718	887	
2	0	0	0	0	406	882	
3	0	0	0	0	519	886	
4	0	0	0	0	557	883	
5	0	0	0	0	393	883	
6	0	0	0	0	820	887	
7	0	0	0	0	536	882	
8	0	0	0	0	529	886	
9	0	0	0	0	552	883	
10	0	0	0	0	317	883	
11	0	0	0	0	679	887	
12	0	0	0	0	385	882	
13	0	0	0	0	487	885	
14	0	0	0	0	545	884	
15	0	0	0	0	315	882	
0	0	0	0	0	679	887	
1	0	0	0	0	418	882	
2	0	0	0	0	508	885	
3	0	0	0	0	553	883	
4	0	0	0	0	365	882	
5	0	0	0	0	712	886	
6	0	0	0	0	426	881	
7	0	0	0	0	522	885	
8	0	0	0	0	536	883	
9	0	0	0	0	371	882	
10	0	0	0	0	740	886	
11	0	0	0	0	420	881	
12	0	0	0	0	529	885	
13	0	0	0	0	586	883	
14	0	0	0	0	362	881	
15	0	0	0	0	737	886	
0	0	0	0	0	438	881	
1	0	0	0	0	542	885	
2	0	0	0	0	561	882	
3	0	0	0	0	347	881	
4	0	0	0	0	715	886	
5	0	0	0	0	385	881	
6	0	0	0	0	504	884	
7	0	0	0	0	520	882	
8	0	0	0	0	315	881	
9	0	0	0	0	695	886	
10	0	0	0	0	366	881	
11	0	0	0	0	499	884	
12	0	0	0	0	559	882	
13	0	0	0	0	316	881	
14	0	0	0	0	715	885	
15	0	0	0	0	419	880	
0	0	0	0	0	511	884	
1	0	0	0	0	564	882	
2	0	0	0	0	354	880	
3	0	0	0	0	685	885	
4	0	0	0	0	419	881	
5	0	0	0	0	486	884	
6	0	0	0	0	596	882	
7	0	0	0	0	340	881	
8	0	0	0	0	716	885	
9	0	0	0	0	440	880	
10	0	0	0	0	508	884	
11	0	0	0	0	531	882	
12	0	0	0	0	355	881	
13	0	0	0	0	728	885	
14	0	0	0	0	415	880	
15	0	0	0	0	503	883	
0	0	0	0	0	586	881	
1	0	0	0	0	349	880	
2	0	0	0	0	730	885	
3	0	0	0	0	415	880	
4	0	0	0	0	530	883	
5	0	0	0	0	558	881	
6	0	0	0	0	383	880	
7	0	0	0	0	723	884	
8	0	0	0	0	426	880	
9	0	0	0	0	541	883	
10	0	0	0	0	512	881	
11	0	0	0	0	384	881	
12	0	0	0	0	651	883	
13	0	0	0	0	387	880	
14	0	0	0	0	553	883	
15	0	0	0	0	510	881	
0	0	0	0	0	364	881	
1	0	0	0	0	712	883	
2	0	0	0	0	395	880	
3	0	0	0	0	547	883	
4	0	0	0	0	508	881	
5	0	0	0	0	400	880	
6	0	0	0	0	815	884	
7	0	0	0	0	539	879	
8	0	0	0	0	502	882	
9	0	0	0	0	561	880	
10	0	0	0	0	312	880	
11	0	0	0	0	708	884	
12	0	0	0	0	345	879	
13	0	0	0	0	473	882	
14	0	0	0	0	555	880	
15	0	0	0	0	346	879	
0	0	0	0	0	696	884	
1	0	0	0	0	407	879	
2	0	0	0	0	527	882	
3	0	0	0	0	566	880	
4	0	0	0	0	308	879	
5	0	0	0	0	744	883	
6	0	0	0	0	402	879	
7	0	0	0	0	533	882	
8	0	0	0	0	528	880	
9	0	0	0	0	368	879	
10	0	0	0	0	724	883	
11	0	0	0	0	393	878	
12	0	0	0	0	570	881	
13	0	0	0	0	547	880	
14	0	0	0	0	462	881	
15	0	0	0	0	517	881	
0	0	0	0	0	505	880	
1	0	0	0	0	518	880	
2	0	0	0	0	502	880	
3	0	0	0	0	486	879	
4	0	0	0	0	500	880	
5	0	0	0	0	439	880	
6	0	0	0	0	431	880	
7	0	0	0	0	466	880	
8	0	0	0	0	419	879	
9	0	0	0	0	519	880	
10	0	0	0	0	472	879	
11	0	0	0	0	487	879	
12	0	0	0	0	480	880	
13	0	0	0	0	492	879	
14	0	0	0	0	543	879	
15	0	0	0	0	494	879	
0	0	0	0	0	499	879	
1	0	0	0	0	539	879	
2	0	0	0	0	509	879	
3	0	0	0	0	526	879	
4	0	0	0	0	475	879	
5	0	0	0	0	550	879	
6	0	0	0	0	487	879	
7	0	0	0	0	505	878	
8	0	0	0	0	477	879	
9	0	0	0	0	511	878	
10	0	0	0	0	533	878	
11	0	0	0	0	513	879	
12	0	0	0	0	495	878	
13	0	0	0	0	523	878	
14	0	0	0	0	565	878	
15	0	0	0	0	534	878	
0	0	0	0	0	533	878	
1	0	0	0	0	543	878	
2	0	0	0	0	533	878	
3	0	0	0	0	552	878	
4	0	0	0	0	545	878	
5	0	0	0	0	505	878	
6	0	0	0	0	527	878	
7	0	0	0	0	518	878	
8	0	0	0	0	473	878	
9	0	0	0	0	507	878	
10	0	0	0	0	506	878	
11	0	0	0	0	497	878	
12	0	0	0	0	533	878	
13	0	0	0	0	520	877	
14	0	0	0	0	507	878	
15	0	0	0	0	515	878	
0	0	0	0	0	517	878	
1	0	0	0	0	531	878	
2	0	0	0	0	660	878	
3	0	0	0	0	603	878	
4	0	0	0	0	544	878	
5	0	0	0	0	480	878	
6	0	0	0	0	454	878	
7	0	0	0	0	502	878	
8	0	0	0	0	495	878	
9	0	0	0	0	511	878	
10	0	0	0	0	496	878	
11	0	0	0	0	492	879	
12	0	0	0	0	510	878	
13	0	0	0	0	486	879	
14	0	0	0	0	535	879	
15	0	0	0	0	486	879	
0	0	0	0	0	500	879	
1	0	0	0	0	520	880	
2	0	0	0	0	537	880	
3	0	0	0	0	548	880	
4	0	0	0	0	494	880	
5	0	0	0	0	562	881	
6	0	0	0	0	447	881	
7	0	0	0	0	550	880	
8	0	0	0	0	459	880	
9	0	0	0	0	507	879	
10	0	0	0	0	531	879	
11	0	0	0	0	507	879	
12	0	0	0	0	497	879	
13	0	0	0	0	514	879	
14	0	0	0	0	490	878	
15	0	0	0	0	472	878	
0	0	0	0	0	487	878	
1	0	0	0	0	446	877	
2	0	0	0	0	441	877	
3	0	0	0	0	463	877	
4	0	0	0	0	438	877	
5	0	0	0	0	468	877	
6	0	0	0	0	464	877	
7	0	0	0	0	444	877	
8	0	0	0	0	516	877	
9	0	0	0	0	451	876	
10	0	0	0	0	490	877	
11	0	0	0	0	521	876	
12	0	0	0	0	505	876	
13	0	0	0	0	555	876	
14	0	0	0	0	517	876	
15	0	0	0	0	490	876	
0	0	0	0	0	561	876	
1	0	0	0	0	495	876	
2	0	0	0	0	556	876	
3	0	0	0	0	482	876	
4	0	0	0	0	567	876	
5	0	0	0	0	546	876	
6	0	0	0	0	515	875	
7	0	0	0	0	544	876	
8	0	0	0	0	557	876	
9	0	0	0	0	593	876	
10	0	0	0	0	563	875	
11	0	0	0	0	544	876	
12	0	0	0	0	576	876	
13	0	0	0	0	563	875	
14	0	0	0	0	478	875	
15	0	0	0	0	488	875	
0	0	0	0	0	488	875	
1	0	0	0	0	458	875	
2	0	0	0	0	485	875	
3	0	0	0	0	481	875	
4	0	0	0	0	471	875	
5	0	0	0	0	470	875	
6	0	0	0	0	487	874	
7	0	0	0	0	457	874	
8	0	0	0	0	460	875	
9	0	0	0	0	489	874	
10	0	0	0	0	542	875	
11	0	0	0	0	487	875	
12	0	0	0	0	484	874	
13	0	0	0	0	717	875	
14	0	0	0	0	595	875	
15	0	0	0	0	551	875	
0	0	0	0	0	518	875	
1	0	0	0	0	471	875	
2	0	0	0	0	541	875	
3	0	0	0	0	500	875	
4	0	0	0	0	561	874	
5	0	0	0	0	498	874	
6	0	0	0	0	532	874	
7	0	0	0	0	577	874	
8	0	0	0	0	533	874	
9	0	0	0	0	552	874	
10	0	0	0	0	519	874	
11	0	0	0	0	566	874	
12	0	0	0	0	548	873	
13	0	0	0	0	538	873	
14	0	0	0	0	570	873	
15	0	0	0	0	538	873	
0	0	0	0	0	527	872	
1	0	0	0	0	542	873	
2	0	0	0	0	516	873	
3	0	0	0	0	498	873	
4	0	0	0	0	505	873	
5	0	0	0	0	490	873	
6	0	0	0	0	470	872	
7	0	0	0	0	470	872	
8	0	0	0	0	496	873	
9	0	0	0	0	445	872	
10	0	0	0	0	462	872	
11	0	0	0	0	414	872	
12	0	0	0	0	467	872	
13	0	0	0	0	484	872	
14	0	0	0	0	397	872	
15	0	0	0	0	451	872	
0	0	0	0	0	428	872	
1	0	0	0	0	469	872	
2	0	0	0	0	456	872	
3	0	0	0	0	474	872	
4	0	0	0	0	435	872	
5	0	0	0	0	510	872	
6	0	0	0	0	545	871	
7	0	0	0	0	464	872	
8	0	0	0	0	517	872	
9	0	0	0	0	501	871	
10	0	0	0	0	491	872	
11	0	0	0	0	551	872	
12	0	0	0	0	489	872	
13	0	0	0	0	471	871	
14	0	0	0	0	485	872	
15	0	0	0	0	538	872	
0	0	0	0	0	502	871	
1	0	0	0	0	528	871	
2	0	0	0	0	524	871	
3	0	0	0	0	558	871	
4	0	0	0	0	499	871	
5	0	0	0	0	583	871	
6	0	0	0	0	475	871	
7	0	0	0	0	334	866	
8	0	0	0	0	764	869	
9	0	0	0	0	454	865	
10	0	0	0	0	628	869	
11	0	0	0	0	627	867	
12	0	0	0	0	372	867	
13	0	0	0	0	727	872	
14	0	0	0	0	433	867	
15	0	0	0	0	555	871	
0	0	0	0	0	623	869	
1	0	0	0	0	343	868	
2	0	0	0	0	779	873	
3	0	0	0	0	391	868	
4	0	0	0	0	521	871	
5	0	0	0	0	617	870	
6	0	0	0	0	479	869	
7	0	0	0	0	884	873	
8	0	0	0	0	442	868	
9	0	0	0	0	555	872	
10	0	0	0	0	501	870	
11	0	0	0	0	295	869	
12	0	0	0	0	712	873	
13	0	0	0	0	376	869	
14	0	0	0	0	549	872	
15	0	0	0	0	474	871	
0	0	0	0	0	263	870	
1	0	0	0	0	744	874	
2	0	0	0	0	371	868	
3	0	0	0	0	473	872	
4	0	0	0	0	586	870	
5	0	0	0	0	295	870	
6	0	0	0	0	732	874	
7	0	0	0	0	400	869	
8	0	0	0	0	504	872	
9	0	0	0	0	556	871	
10	0	0	0	0	368	870	
11	0	0	0	0	746	874	
12	0	0	0	0	411	869	
13	0	0	0	0	511	872	
14	0	0	0	0	606	871	
15	0	0	0	0	319	870	
0	0	0	0	0	763	874	
1	0	0	0	0	404	869	
2	0	0	0	0	518	872	
3	0	0	0	0	540	871	
4	0	0	0	0	340	870	
5	0	0	0	0	748	874	
6	0	0	0	0	354	870	
7	0	0	0	0	471	873	
8	0	0	0	0	525	871	
9	0	0	0	0	287	870	
10	0	0	0	0	717	875	
11	0	0	0	0	385	870	
12	0	0	0	0	432	873	
13	0	0	0	0	563	871	
14	0	0	0	0	373	870	
15	0	0	0	0	753	875	
0	0	0	0	0	360	870	
1	0	0	0	0	501	873	
2	0	0	0	0	556	871	
3	0	0	0	0	284	870	
4	0	0	0	0	707	875	
5	0	0	0	0	384	870	
6	0	0	0	0	529	873	
7	0	0	0	0	581	871	
8	0	0	0	0	294	871	
9	0	0	0	0	705	875	
10	0	0	0	0	400	870	
11	0	0	0	0	507	873	
12	0	0	0	0	588	872	
13	0	0	0	0	289	871	
14	0	0	0	0	769	876	
15	0	0	0	0	385	871	
0	0	0	0	0	507	873	
1	0	0	0	0	590	872	
2	0	0	0	0	321	871	
3	0	0	0	0	737	876	
4	0	0	0	0	395	870	
5	0	0	0	0	500	874	
6	0	0	0	0	601	872	
7	0	0	0	0	323	871	
8	0	0	0	0	725	876	
9	0	0	0	0	394	871	
10	0	0	0	0	485	874	
11	0	0	0	0	574	872	
12	0	0	0	0	427	871	
13	0	0	0	0	849	876	
14	0	0	0	0	471	871	
15	0	0	0	0	451	875	
0	0	0	0	0	578	873	
1	0	0	0	0	258	871	
2	0	0	0	0	708	876	
3	0	0	0	0	385	871	
4	0	0	0	0	508	875	
5	0	0	0	0	594	873	
6	0	0	0	0	310	872	
7	0	0	0	0	725	876	
8	0	0	0	0	375	871	
9	0	0	0	0	510	875	
10	0	0	0	0	527	873	
11	0	0	0	0	353	872	
12	0	0	0	0	765	877	
13	0	0	0	0	394	872	
14	0	0	0	0	498	875	
15	0	0	0	0	601	874	
0	0	0	0	0	323	873	
1	0	0	0	0	775	877	
2	0	0	0	0	398	872	
3	0	0	0	0	539	876	
4	0	0	0	0	617	874	
5	0	0	0	0	308	873	
6	0	0	0	0	769	878	
7	0	0	0	0	451	873	
8	0	0	0	0	484	876	
9	0	0	0	0	578	875	
10	0	0	0	0	292	873	
11	0	0	0	0	680	878	
12	0	0	0	0	386	873	
13	0	0	0	0	448	877	
14	0	0	0	0	567	875	
15	0	0	0	0	313	873	
0	0	0	0	0	704	878	
1	0	0	0	0	376	873	
2	0	0	0	0	491	877	
3	0	0	0	0	545	875	
4	0	0	0	0	343	874	
5	0	0	0	0	672	878	
6	0	0	0	0	415	873	
7	0	0	0	0	465	877	
8	0	0	0	0	571	876	
9	0	0	0	0	348	875	
10	0	0	0	0	734	879	
11	0	0	0	0	420	874	
12	0	0	0	0	460	878	
13	0	0	0	0	518	876	
14	0	0	0	0	371	875	
15	0	0	0	0	768	880	
0	0	0	0	0	389	874	
1	0	0	0	0	496	878	
2	0	0	0	0	560	876	
3	0	0	0	0	296	875	
4	0	0	0	0	746	880	
5	0	0	0	0	409	875	
6	0	0	0	0	491	878	
7	0	0	0	0	506	877	
8	0	0	0	0	350	876	
9	0	0	0	0	723	880	
10	0	0	0	0	332	875	
11	0	0	0	0	508	879	
12	0	0	0	0	521	877	
13	0	0	0	0	290	876	
14	0	0	0	0	693	880	
15	0	0	0	0	452	876	
0	0	0	0	0	494	879	
1	0	0	0	0	588	877	
2	0	0	0	0	479	876	
3	0	0	0	0	867	881	
4	0	0	0	0	549	876	
5	0	0	0	0	491	879	
6	0	0	0	0	571	878	
7	0	0	0	0	331	876	
8	0	0	0	0	718	881	
9	0	0	0	0	411	876	
10	0	0	0	0	522	879	
11	0	0	0	0	539	877	
12	0	0	0	0	351	876	
13	0	0	0	0	734	880	
14	0	0	0	0	444	876	
15	0	0	0	0	507	878	
0	0	0	0	0	611	877	
1	0	0	0	0	385	875	
2	0	0	0	0	733	880	
3	0	0	0	0	412	876	
4	0	0	0	0	486	878	
5	0	0	0	0	555	878	
6	0	0	0	0	327	876	
7	0	0	0	0	705	881	
8	0	0	0	0	402	877	
9	0	0	0	0	462	880	
10	0	0	0	0	540	879	
11	0	0	0	0	277	878	
12	0	0	0	0	701	883	
13	0	0	0	0	382	878	
14	0	0	0	0	500	881	
15	0	0	0	0	540	880	
0	0	0	0	0	334	879	
1	0	0	0	0	726	883	
2	0	0	0	0	408	878	
3	0	0	0	0	576	882	
4	0	0	0	0	445	879	
5	0	0	0	0	442	879	
6	0	0	0	0	724	882	
7	0	0	0	0	375	879	
8	0	0	0	0	583	881	
9	0	0	0	0	481	879	
10	0	0	0	0	521	878	
11	0	0	0	0	572	879	
12	0	0	0	0	478	879	
13	0	0	0	0	551	879	
14	0	0	0	0	524	879	
15	0	0	0	0	525	879	
0	0	0	0	0	471	879	
1	0	0	0	0	421	879	
2	0	0	0	0	488	879	
3	0	0	0	0	467	880	
4	0	0	0	0	423	880	
5	0	0	0	0	504	880	
6	0	0	0	0	427	880	
7	0	0	0	0	463	880	
8	0	0	0	0	504	880	
9	0	0	0	0	468	879	
10	0	0	0	0	551	880	
11	0	0	0	0	564	880	
12	0	0	0	0	632	880	
13	0	0	0	0	572	880	
14	0	0	0	0	577	880	
15	0	0	0	0	514	880	
0	0	0	0	0	476	880	
1	0	0	0	0	622	880	
2	0	0	0	0	558	880	
3	0	0	0	0	586	880	
4	0	0	0	0	539	880	
5	0	0	0	0	523	881	
6	0	0	0	0	516	881	
7	0	0	0	0	535	881	
8	0	0	0	0	550	880	
9	0	0	0	0	635	881	
10	0	0	0	0	575	881	
11	0	0	0	0	531	881	
12	0	0	0	0	448	881	
13	0	0	0	0	452	881	
14	0	0	0	0	474	881	
15	0	0	0	0	397	881	
0	0	0	0	0	433	881	
1	0	0	0	0	484	880	
2	0	0	0	0	454	880	
3	0	0	0	0	484	880	
4	0	0	0	0	490	880	
5	0	0	0	0	495	880	
6	0	0	0	0	491	880	
7	0	0	0	0	479	880	
8	0	0	0	0	523	881	
9	0	0	0	0	473	880	
10	0	0	0	0	517	880	
11	0	0	0	0	497	881	
12	0	0	0	0	500	880	
13	0	0	0	0	548	881	
14	0	0	0	0	521	880	
15	0	0	0	0	461	880	
0	0	0	0	0	540	881	
1	0	0	0	0	512	881	
2	0	0	0	0	558	881	
3	0	0	0	0	525	881	
4	0	0	0	0	555	881	
5	0	0	0	0	529	881	
6	0	0	0	0	521	881	
7	0	0	0	0	495	881	
8	0	0	0	0	499	882	
9	0	0	0	0	502	882	
10	0	0	0	0	462	881	
11	0	0	0	0	495	881	
12	0	0	0	0	443	882	
13	0	0	0	0	486	881	
14	0	0	0	0	454	881	
15	0	0	0	0	470	881	
0	0	0	0	0	435	881	
1	0	0	0	0	475	881	
2	0	0	0	0	568	881	
3	0	0	0	0	488	881	
4	0	0	0	0	563	881	
5	0	0	0	0	498	881	
6	0	0	0	0	558	882	
7	0	0	0	0	516	881	
8	0	0	0	0	589	881	
9	0	0	0	0	568	882	
10	0	0	0	0	592	882	
11	0	0	0	0	629	882	
12	0	0	0	0	581	882	
13	0	0	0	0	719	883	
14	0	0	0	0	644	883	
15	0	0	0	0	619	883	
0	0	0	0	0	582	883	
1	0	0	0	0	499	883	
2	0	0	0	0	457	883	
3	0	0	0	0	387	883	
4	0	0	0	0	436	884	
5	0	0	0	0	353	884	
6	0	0	0	0	404	884	
7	0	0	0	0	399	884	
8	0	0	0	0	410	885	
9	0	0	0	0	372	884	
10	0	0	0	0	403	885	
11	0	0	0	0	399	885	
12	0	0	0	0	410	885	
13	0	0	0	0	431	886	
14	0	0	0	0	419	886	
15	0	0	0	0	443	886	
0	0	0	0	0	617	886	
1	0	0	0	0	613	886	
2	0	0	0	0	537	887	
3	0	0	0	0	495	887	
4	0	0	0	0	491	887	
5	0	0	0	0	500	887	
6	0	0	0	0	492	888	
7	0	0	0	0	559	888	
8	0	0	0	0	601	888	
9	0	0	0	0	552	887	
10	0	0	0	0	571	888	
11	0	0	0	0	540	887	
12	0	0	0	0	586	887	
13	0	0	0	0	558	888	
14	0	0	0	0	556	887	
15	0	0	0	0	573	887	
0	0	0	0	0	556	887	
1	0	0	0	0	557	886	
2	0	0	0	0	552	886	
3	0	0	0	0	528	885	
4	0	0	0	0	580	884	
5	0	0	0	0	583	884	
6	0	0	0	0	627	884	
7	0	0	0	0	608	883	
8	0	0	0	0	647	883	
9	0	0	0	0	653	883	
10	0	0	0	0	606	883	
11	0	0	0	0	709	883	
12	0	0	0	0	624	883	
13	0	0	0	0	588	883	
14	0	0	0	0	568	882	
15	0	0	0	0	531	882	
0	0	0	0	0	541	882	
1	0	0	0	0	462	882	
2	0	0	0	0	475	882	
3	0	0	0	0	524	882	
4	0	0	0	0	437	882	
5	0	0	0	0	436	882	
6	0	0	0	0	378	882	
7	0	0	0	0	419	882	
8	0	0	0	0	408	882	
9	0	0	0	0	423	882	
10	0	0	0	0	475	882	
11	0	0	0	0	375	882	
12	0	0	0	0	445	882	
13	0	0	0	0	361	882	
14	0	0	0	0	421	882	
15	0	0	0	0	477	882	
0	0	0	0	0	505	882	
1	0	0	0	0	469	882	
2	0	0	0	0	511	882	
3	0	0	0	0	467	882	
4	0	0	0	0	545	882	
5	0	0	0	0	448	882	
6	0	0	0	0	479	882	
7	0	0	0	0	491	882	
8	0	0	0	0	490	882	
9	0	0	0	0	523	882	
10	0	0	0	0	523	883	
11	0	0	0	0	557	883	
12	0	0	0	0	499	884	
13	0	0	0	0	500	884	
14	0	0	0	0	486	886	
15	0	0	0	0	504	886	
0	0	0	0	0	520	888	
1	0	0	0	0	438	888	
2	0	0	0	0	424	887	
3	0	0	0	0	400	886	
4	0	0	0	0	431	885	
5	0	0	0	0	455	884	
6	0	0	0	0	393	883	
7	0	0	0	0	509	882	
8	0	0	0	0	526	881	
9	0	0	0	0	495	881	
10	0	0	0	0	543	880	
11	0	0	0	0	515	880	
12	0	0	0	0	543	880	
13	0	0	0	0	520	881	
14	0	0	0	0	624	881	
15	0	0	0	0	673	882	
0	0	0	0	0	583	882	
1	0	0	0	0	444	882	
2	0	0	0	0	477	882	
3	0	0	0	0	497	882	
4	0	0	0	0	436	882	
5	0	0	0	0	473	882	
6	0	0	0	0	502	882	
7	0	0	0	0	444	882	
8	0	0	0	0	481	882	
9	0	0	0	0	502	882	
10	0	0	0	0	473	882	
11	0	0	0	0	499	882	
12	0	0	0	0	492	882	
13	0	0	0	0	481	882	
14	0	0	0	0	540	882	
15	0	0	0	0	514	882	
0	0	0	0	0	481	883	
1	0	0	0	0	542	883	
2	0	0	0	0	463	882	
3	0	0	0	0	570	882	
4	0	0	0	0	507	882	
5	0	0	0	0	546	882	
6	0	0	0	0	584	882	
7	0	0	0	0	505	882	
8	0	0	0	0	580	882	
9	0	0	0	0	531	882	
10	0	0	0	0	528	882	
11	0	0	0	0	524	882	
12	0	0	0	0	477	882	
13	0	0	0	0	511	882	
14	0	0	0	0	492	882	
15	0	0	0	0	560	882	
0	0	0	0	0	485	882	
1	0	0	0	0	491	882	
2	0	0	0	0	545	882	
3	0	0	0	0	491	882	
4	0	0	0	0	506	882	
5	0	0	0	0	527	882	
6	0	0	0	0	506	881	
7	0	0	0	0	523	882	
8	0	0	0	0	504	881	
9	0	0	0	0	504	882	
10	0	0	0	0	518	882	
11	0	0	0	0	536	882	
12	0	0	0	0	562	882	
13	0	0	0	0	551	882	
14	0	0	0	0	564	882	
15	0	0	0	0	597	882	
0	0	0	0	0	550	882	
1	0	0	0	0	590	882	
2	0	0	0	0	615	883	
3	0	0	0	0	568	882	
4	0	0	0	0	545	883	
5	0	0	0	0	606	883	
6	0	0	0	0	563	883	
7	0	0	0	0	540	883	
8	0	0	0	0	563	884	
9	0	0	0	0	509	884	
10	0	0	0	0	476	884	
11	0	0	0	0	406	884	
12	0	0	0	0	420	884	
13	0	0	0	0	398	884	
14	0	0	0	0	407	885	
15	0	0	0	0	418	884	
0	0	0	0	0	404	885	
1	0	0	0	0	443	884	
2	0	0	0	0	446	884	
3	0	0	0	0	454	885	
4	0	0	0	0	503	885	
5	0	0	0	0	523	885	
6	0	0	0	0	563	885	
7	0	0	0	0	544	885	
8	0	0	0	0	673	885	
9	0	0	0	0	652	885	
10	0	0	0	0	570	885	
11	0	0	0	0	483	885	
12	0	0	0	0	500	885	
13	0	0	0	0	458	885	
14	0	0	0	0	474	885	
15	0	0	0	0	505	885	
0	0	0	0	0	451	885	
1	0	0	0	0	459	885	
2	0	0	0	0	436	885	
3	0	0	0	0	453	885	
4	0	0	0	0	514	886	
5	0	0	0	0	459	886	
6	0	0	0	0	463	885	
7	0	0	0	0	499	886	
8	0	0	0	0	547	886	
9	0	0	0	0	441	886	
10	0	0	0	0	502	886	
11	0	0	0	0	530	886	
12	0	0	0	0	490	888	
13	0	0	0	0	500	888	
14	0	0	0	0	540	888	
15	0	0	0	0	518	888	
0	0	0	0	0	546	887	
1	0	0	0	0	524	887	
2	0	0	0	0	547	887	
3	0	0	0	0	536	887	
4	0	0	0	0	499	887	
5	0	0	0	0	473	886	
6	0	0	0	0	444	886	
7	0	0	0	0	510	886	
8	0	0	0	0	467	886	
9	0	0	0	0	522	886	
10	0	0	0	0	519	885	
11	0	0	0	0	586	885	
12	0	0	0	0	561	886	
13	0	0	0	0	623	886	
14	0	0	0	0	570	886	
15	0	0	0	0	633	886	
0	0	0	0	0	571	886	
1	0	0	0	0	542	886	
2	0	0	0	0	560	889	
3	0	0	0	0	565	889	
4	0	0	0	0	521	889	
5	0	0	0	0	568	888	
6	0	0	0	0	541	888	
7	0	0	0	0	499	888	
8	0	0	0	0	531	888	
9	0	0	0	0	511	888	
10	0	0	0	0	403	888	
11	0	0	0	0	490	888	
12	0	0	0	0	425	888	
13	0	0	0	0	456	888	
14	0	0	0	0	467	888	
15	0	0	0	0	454	889	
0	0	0	0	0	364	889	
1	0	0	0	0	424	889	
2	0	0	0	0	472	888	
3	0	0	0	0	501	888	
4	0	0	0	0	479	888	
5	0	0	0	0	510	888	
6	0	0	0	0	513	888	
7	0	0	0	0	487	888	
8	0	0	0	0	499	888	
9	0	0	0	0	483	888	
10	0	0	0	0	518	888	
11	0	0	0	0	493	888	
12	0	0	0	0	524	888	
13	0	0	0	0	488	888	
14	0	0	0	0	530	888	
15	0	0	0	0	479	888	
0	0	0	0	0	505	888	
1	0	0	0	0	517	887	
2	0	0	0	0	481	887	
3	0	0	0	0	498	887	
4	0	0	0	0	600	887	
5	0	0	0	0	641	887	
6	0	0	0	0	599	887	
7	0	0	0	0	517	887	
8	0	0	0	0	514	887	
9	0	0	0	0	413	887	
10	0	0	0	0	519	887	
11	0	0	0	0	481	887	
12	0	0	0	0	504	887	
13	0	0	0	0	499	886	
14	0	0	0	0	545	886	
15	0	0	0	0	513	886	
0	0	0	0	0	594	886	
1	0	0	0	0	487	886	
2	0	0	0	0	515	886	
3	0	0	0	0	526	886	
4	0	0	0	0	529	886	
5	0	0	0	0	486	886	
6	0	0	0	0	516	886	
7	0	0	0	0	535	886	
8	0	0	0	0	531	885	
9	0	0	0	0	536	885	
10	0	0	0	0	555	885	
11	0	0	0	0	574	886	
12	0	0	0	0	590	885	
13	0	0	0	0	557	885	
14	0	0	0	0	569	885	
15	0	0	0	0	592	885	
0	0	0	0	0	625	885	
1	0	0	0	0	542	885	
2	0	0	0	0	540	885	
3	0	0	0	0	509	885	
4	0	0	0	0	536	885	
5	0	0	0	0	451	884	
6	0	0	0	0	432	884	
7	0	0	0	0	483	884	
8	0	0	0	0	417	884	
9	0	0	0	0	431	884	
10	0	0	0	0	444	884	
11	0	0	0	0	384	884	
12	0	0	0	0	464	884	
13	0	0	0	0	484	884	
14	0	0	0	0	537	884	
15	0	0	0	0	518	884	
0	0	0	0	0	536	884	
1	0	0	0	0	457	884	
2	0	0	0	0	551	884	
3	0	0	0	0	513	885	
4	0	0	0	0	497	885	
5	0	0	0	0	486	885	
6	0	0	0	0	507	885	
7	0	0	0	0	499	885	
8	0	0	0	0	481	885	
9	0	0	0	0	478	885	
10	0	0	0	0	495	885	
11	0	0	0	0	519	885	
12	0	0	0	0	592	885	
13	0	0	0	0	563	884	
14	0	0	0	0	586	885	
15	0	0	0	0	536	885	
0	0	0	0	0	551	885	
1	0	0	0	0	536	885	
2	0	0	0	0	499	885	
3	0	0	0	0	514	885	
4	0	0	0	0	508	886	
5	0	0	0	0	487	885	
6	0	0	0	0	474	886	
7	0	0	0	0	496	885	
8	0	0	0	0	492	885	
9	0	0	0	0	473	885	
10	0	0	0	0	501	886	
11	0	0	0	0	504	886	
12	0	0	0	0	540	886	
13	0	0	0	0	489	885	
14	0	0	0	0	498	886	
15	0	0	0	0	489	886	
0	0	0	0	0	505	885	
1	0	0	0	0	500	886	
2	0	0	0	0	611	885	
3	0	0	0	0	668	886	
4	0	0	0	0	621	885	
5	0	0	0	0	514	886	
6	0	0	0	0	440	886	
7	0	0	0	0	498	886	
8	0	0	0	0	484	885	
9	0	0	0	0	454	885	
10	0	0	0	0	524	886	
11	0	0	0	0	483	886	
12	0	0	0	0	476	886	
13	0	0	0	0	519	886	
14	0	0	0	0	478	885	
15	0	0	0	0	478	885	
0	0	0	0	0	495	886	
1	0	0	0	0	517	886	
2	0	0	0	0	479	886	
3	0	0	0	0	506	885	
4	0	0	0	0	502	886	
5	0	0	0	0	521	886	
6	0	0	0	0	539	885	
7	0	0	0	0	486	886	
8	0	0	0	0	555	885	
9	0	0	0	0	502	885	
10	0	0	0	0	511	885	
11	0	0	0	0	504	885	
12	0	0	0	0	495	886	
13	0	0	0	0	501	885	
14	0	0	0	0	540	885	
15	0	0	0	0	483	885	
0	0	0	0	0	497	885	
1	0	0	0	0	508	885	
2	0	0	0	0	469	885	
3	0	0	0	0	494	885	
4	0	0	0	0	455	885	
5	0	0	0	0	473	885	
6	0	0	0	0	508	885	
7	0	0	0	0	476	885	
8	0	0	0	0	497	885	
9	0	0	0	0	521	885	
10	0	0	0	0	467	885	
11	0	0	0	0	534	885	
12	0	0	0	0	520	885	
13	0	0	0	0	504	884	
14	0	0	0	0	527	885	
15	0	0	0	0	483	884	
0	0	0	0	0	524	885	
1	0	0	0	0	529	884	
2	0	0	0	0	524	885	
3	0	0	0	0	532	884	
4	0	0	0	0	528	884	
5	0	0	0	0	551	884	
6	0	0	0	0	530	885	
7	0	0	0	0	524	884	
8	0	0	0	0	528	885	
9	0	0	0	0	484	884	
10	0	0	0	0	530	884	
11	0	0	0	0	479	884	
12	0	0	0	0	528	884	
13	0	0	0	0	507	884	
14	0	0	0	0	511	885	
15	0	0	0	0	521	884	
0	0	0	0	0	544	884	
1	0	0	0	0	545	884	
2	0	0	0	0	526	884	
3	0	0	0	0	496	884	
4	0	0	0	0	524	884	
5	0	0	0	0	483	884	
6	0	0	0	0	478	884	
7	0	0	0	0	516	885	
8	0	0	0	0	508	884	
9	0	0	0	0	514	885	
10	0	0	0	0	515	884	
11	0	0	0	0	472	884	
12	0	0	0	0	490	885	
13	0	0	0	0	454	884	
14	0	0	0	0	466	884	
15	0	0	0	0	559	884	
0	0	0	0	0	587	884	
1	0	0	0	0	561	884	
2	0	0	0	0	467	884	
3	0	0	0	0	496	884	
4	0	0	0	0	455	884	
5	0	0	0	0	446	884	
6	0	0	0	0	483	884	
7	0	0	0	0	485	884	
8	0	0	0	0	487	884	
9	0	0	0	0	501	884	
10	0	0	0	0	505	884	
11	0	0	0	0	519	884	
12	0	0	0	0	516	884	
13	0	0	0	0	528	884	
14	0	0	0	0	527	884	
15	0	0	0	0	496	884	
0	0	0	0	0	485	884	
1	0	0	0	0	513	884	
2	0	0	0	0	527	884	
3	0	0	0	0	515	884	
4	0	0	0	0	526	884	
5	0	0	0	0	516	884	
6	0	0	0	0	512	884	
7	0	0	0	0	519	884	
8	0	0	0	0	519	884	
9	0	0	0	0	511	883	
10	0	0	0	0	530	883	
11	0	0	0	0	525	884	
12	0	0	0	0	513	884	
13	0	0	0	0	488	883	
14	0	0	0	0	505	883	
15	0	0	0	0	452	884	
0	0	0	0	0	447	884	
1	0	0	0	0	464	883	
2	0	0	0	0	454	884	
3	0	0	0	0	497	883	
4	0	0	0	0	513	884	
5	0	0	0	0	491	883	
6	0	0	0	0	525	883	
7	0	0	0	0	527	883	
8	0	0	0	0	537	884	
9	0	0	0	0	541	883	
10	0	0	0	0	500	883	
11	0	0	0	0	521	883	
12	0	0	0	0	498	884	
13	0	0	0	0	507	884	
14	0	0	0	0	521	883	
15	0	0	0	0	507	883	
0	0	0	0	0	527	883	
1	0	0	0	0	525	883	
2	0	0	0	0	532	883	
3	0	0	0	0	523	883	
4	0	0	0	0	537	883	
5	0	0	0	0	547	883	
6	0	0	0	0	543	883	
7	0	0	0	0	557	883	
8	0	0	0	0	540	883	
9	0	0	0	0	541	883	
10	0	0	0	0	534	883	
11	0	0	0	0	547	883	
12	0	0	0	0	532	883	
13	0	0	0	0	527	883	
14	0	0	0	0	537	883	
15	0	0	0	0	527	883	
0	0	0	0	0	512	883	
1	0	0	0	0	523	883	
2	0	0	0	0	532	883	
3	0	0	0	0	534	882	
4	0	0	0	0	530	883	
5	0	0	0	0	528	883	
6	0	0	0	0	519	883	
7	0	0	0	0	525	883	
8	0	0	0	0	519	883	
9	0	0	0	0	504	883	
10	0	0	0	0	514	883	
11	0	0	0	0	536	883	
12	0	0	0	0	632	883	
13	0	0	0	0	632	882	
14	0	0	0	0	562	883	
15	0	0	0	0	482	882	
0	0	0	0	0	482	882	
1	0	0	0	0	488	882	
2	0	0	0	0	475	882	
3	0	0	0	0	477	883	
4	0	0	0	0	500	883	
5	0	0	0	0	488	882	
6	0	0	0	0	491	882	
7	0	0	0	0	488	882	
8	0	0	0	0	505	882	
9	0	0	0	0	498	883	
10	0	0	0	0	522	882	
11	0	0	0	0	516	883	
12	0	0	0	0	506	882	
13	0	0	0	0	520	882	
14	0	0	0	0	526	882	
15	0	0	0	0	526	882	
0	0	0	0	0	519	883	
1	0	0	0	0	534	882	
2	0	0	0	0	518	882	
3	0	0	0	0	510	882	
4	0	0	0	0	534	882	
5	0	0	0	0	501	882	
6	0	0	0	0	504	882	
7	0	0	0	0	506	882	
8	0	0	0	0	483	882	
9	0	0	0	0	487	882	
10	0	0	0	0	483	882	
11	0	0	0	0	457	882	
12	0	0	0	0	474	882	
13	0	0	0	0	474	882	
14	0	0	0	0	462	882	
15	0	0	0	0	502	882	
0	0	0	0	0	484	882	
1	0	0	0	0	505	882	
2	0	0	0	0	497	882	
3	0	0	0	0	511	882	
4	0	0	0	0	510	882	
5	0	0	0	0	511	882	
6	0	0	0	0	518	882	
7	0	0	0	0	531	882	
8	0	0	0	0	497	881	
9	0	0	0	0	519	881	
10	0	0	0	0	495	881	
11	0	0	0	0	505	881	
12	0	0	0	0	512	881	
13	0	0	0	0	515	881	
14	0	0	0	0	510	881	
15	0	0	0	0	517	881	
0	0	0	0	0	527	881	
1	0	0	0	0	525	881	
2	0	0	0	0	526	881	
3	0	0	0	0	508	881	
4	0	0	0	0	518	881	
5	0	0	0	0	509	881	
6	0	0	0	0	511	881	
7	0	0	0	0	504	881	
8	0	0	0	0	491	881	
9	0	0	0	0	487	881	
10	0	0	0	0	508	881	
11	0	0	0	0	514	880	
12	0	0	0	0	498	881	
13	0	0	0	0	485	880	
14	0	0	0	0	494	881	
15	0	0	0	0	495	880	
0	0	0	0	0	487	880	
1	0	0	0	0	491	881	
2	0	0	0	0	489	880	
3	0	0	0	0	483	880	
4	0	0	0	0	509	881	
5	0	0	0	0	487	880	
6	0	0	0	0	502	881	
7	0	0	0	0	486	881	
8	0	0	0	0	489	880	
9	0	0	0	0	487	881	
10	0	0	0	0	476	880	
11	0	0	0	0	593	881	
12	0	0	0	0	637	880	
13	0	0	0	0	569	881	
14	0	0	0	0	456	880	
15	0	0	0	0	436	880	
0	0	0	0	0	438	880	
1	0	0	0	0	442	880	
2	0	0	0	0	439	880	
3	0	0	0	0	463	880	
4	0	0	0	0	474	880	
5	0	0	0	0	504	880	
6	0	0	0	0	521	880	
7	0	0	0	0	514	880	
8	0	0	0	0	531	880	
9	0	0	0	0	529	880	
10	0	0	0	0	541	880	
11	0	0	0	0	544	880	
12	0	0	0	0	544	879	
13	0	0	0	0	551	880	
14	0	0	0	0	526	880	
15	0	0	0	0	529	880	
0	0	0	0	0	531	879	
1	0	0	0	0	524	879	
2	0	0	0	0	532	879	
3	0	0	0	0	527	879	
4	0	0	0	0	524	879	
5	0	0	0	0	518	879	
6	0	0	0	0	515	879	
7	0	0	0	0	520	879	
8	0	0	0	0	515	879	
9	0	0	0	0	514	879	
10	0	0	0	0	497	879	
11	0	0	0	0	486	879	
12	0	0	0	0	491	879	
13	0	0	0	0	491	879	
14	0	0	0	0	480	879	
15	0	0	0	0	487	879	
0	0	0	0	0	467	879	
1	0	0	0	0	494	879	
2	0	0	0	0	485	879	
3	0	0	0	0	505	879	
4	0	0	0	0	511	879	
5	0	0	0	0	503	879	
6	0	0	0	0	510	879	
7	0	0	0	0	500	879	
8	0	0	0	0	538	879	
9	0	0	0	0	508	879	
10	0	0	0	0	502	879	
11	0	0	0	0	539	879	
12	0	0	0	0	481	879	
13	0	0	0	0	527	879	
14	0	0	0	0	493	879	
15	0	0	0	0	536	879	
0	0	0	0	0	520	878	
1	0	0	0	0	552	879	
2	0	0	0	0	611	879	
3	0	0	0	0	591	879	
4	0	0	0	0	649	879	
5	0	0	0	0	655	879	
6	0	0	0	0	632	879	
7	0	0	0	0	639	879	
8	0	0	0	0	547	879	
9	0	0	0	0	606	879	
10	0	0	0	0	596	879	
11	0	0	0	0	609	879	
12	0	0	0	0	659	879	
13	0	0	0	0	679	879	
14	0	0	0	0	652	878	
15	0	0	0	0	554	879	
0	0	0	0	0	460	879	
1	0	0	0	0	411	879	
2	0	0	0	0	381	879	
3	0	0	0	0	369	878	
4	0	0	0	0	338	879	
5	0	0	0	0	412	879	
6	0	0	0	0	472	878	
7	0	0	0	0	573	879	
8	0	0	0	0	741	879	
9	0	0	0	0	700	878	
10	0	0	0	0	709	878	
11	0	0	0	0	597	878	
12	0	0	0	0	498	879	
13	0	0	0	0	438	879	
14	0	0	0	0	367	879	
15	0	0	0	0	401	878	
0	0	0	0	0	340	878	
1	0	0	0	0	391	878	
2	0	0	0	0	431	878	
3	0	0	0	0	388	878	
4	0	0	0	0	358	878	
5	0	0	0	0	459	877	
6	0	0	0	0	376	877	
7	0	0	0	0	364	877	
8	0	0	0	0	395	878	
9	0	0	0	0	445	877	
10	0	0	0	0	412	877	
11	0	0	0	0	471	877	
12	0	0	0	0	472	877	
13	0	0	0	0	507	877	
14	0	0	0	0	499	877	
15	0	0	0	0	472	877	
0	0	0	0	0	477	876	
1	0	0	0	0	404	876	
2	0	0	0	0	444	876	
3	0	0	0	0	466	876	
4	0	0	0	0	474	876	
5	0	0	0	0	349	876	
6	0	0	0	0	384	876	
7	0	0	0	0	413	876	
8	0	0	0	0	472	876	
9	0	0	0	0	489	876	
10	0	0	0	0	505	875	
11	0	0	0	0	501	875	
12	0	0	0	0	526	875	
13	0	0	0	0	550	874	
14	0	0	0	0	624	875	
15	0	0	0	0	563	874	
0	0	0	0	0	547	873	
1	0	0	0	0	581	873	
2	0	0	0	0	545	873	
3	0	0	0	0	569	873	
4	0	0	0	0	601	873	
5	0	0	0	0	548	873	
6	0	0	0	0	551	873	
7	0	0	0	0	562	873	
8	0	0	0	0	522	874	
9	0	0	0	0	552	874	
10	0	0	0	0	548	874	
11	0	0	0	0	512	874	
12	0	0	0	0	585	874	
13	0	0	0	0	515	874	
14	0	0	0	0	551	874	
15	0	0	0	0	467	874	
0	0	0	0	0	565	874	
1	0	0	0	0	446	874	
2	0	0	0	0	559	874	
3	0	0	0	0	597	875	
4	0	0	0	0	474	874	
5	0	0	0	0	583	875	
6	0	0	0	0	592	874	
7	0	0	0	0	535	875	
8	0	0	0	0	650	875	
9	0	0	0	0	527	875	
10	0	0	0	0	541	875	
11	0	0	0	0	603	875	
12	0	0	0	0	558	875	
13	0	0	0	0	588	875	
14	0	0	0	0	490	875	
15	0	0	0	0	559	875	
0	0	0	0	0	546	875	
1	0	0	0	0	507	875	
2	0	0	0	0	525	874	
3	0	0	0	0	473	874	
4	0	0	0	0	486	874	
5	0	0	0	0	616	874	
6	0	0	0	0	642	874	
7	0	0	0	0	615	873	
8	0	0	0	0	387	873	
9	0	0	0	0	462	873	
10	0	0	0	0	433	873	
11	0	0	0	0	412	873	
12	0	0	0	0	419	873	
13	0	0	0	0	378	873	
14	0	0	0	0	425	873	
15	0	0	0	0	468	873	
0	0	0	0	0	404	873	
1	0	0	0	0	444	873	
2	0	0	0	0	448	873	
3	0	0	0	0	440	873	
4	0	0	0	0	459	873	
5	0	0	0	0	481	873	
6	0	0	0	0	467	873	
7	0	0	0	0	484	873	
8	0	0	0	0	526	873	
9	0	0	0	0	415	873	
10	0	0	0	0	397	873	
11	0	0	0	0	472	873	
12	0	0	0	0	468	873	
13	0	0	0	0	639	874	
14	0	0	0	0	683	874	
15	0	0	0	0	689	874	
0	0	0	0	0	633	874	
1	0	0	0	0	579	874	
2	0	0	0	0	524	874	
3	0	0	0	0	547	874	
4	0	0	0	0	467	874	
5	0	0	0	0	480	874	
6	0	0	0	0	487	874	
7	0	0	0	0	479	874	
8	0	0	0	0	511	874	
9	0	0	0	0	519	874	
10	0	0	0	0	518	874	
11	0	0	0	0	500	874	
12	0	0	0	0	530	874	
13	0	0	0	0	526	873	
14	0	0	0	0	519	873	
15	0	0	0	0	562	873	
0	0	0	0	0	546	873	
1	0	0	0	0	539	873	
2	0	0	0	0	505	873	
3	0	0	0	0	543	872	
4	0	0	0	0	522	872	
5	0	0	0	0	528	872	
6	0	0	0	0	527	872	
7	0	0	0	0	497	872	
8	0	0	0	0	498	872	
9	0	0	0	0	599	872	
10	0	0	0	0	528	871	
11	0	0	0	0	539	872	
12	0	0	0	0	541	871	
13	0	0	0	0	451	872	
14	0	0	0	0	561	872	
15	0	0	0	0	494	872	
0	0	0	0	0	535	873	
1	0	0	0	0	455	872	
2	0	0	0	0	498	872	
3	0	0	0	0	442	872	
4	0	0	0	0	414	873	
5	0	0	0	0	434	872	
6	0	0	0	0	400	873	
7	0	0	0	0	404	873	
8	0	0	0	0	411	873	
9	0	0	0	0	421	873	
10	0	0	0	0	381	873	
11	0	0	0	0	442	873	
12	0	0	0	0	397	873	
13	0	0	0	0	444	873	
14	0	0	0	0	416	874	
15	0	0	0	0	431	874	
0	0	0	0	0	437	873	
1	0	0	0	0	541	873	
2	0	0	0	0	668	874	
3	0	0	0	0	614	873	
4	0	0	0	0	464	874	
5	0	0	0	0	409	873	
6	0	0	0	0	469	873	
7	0	0	0	0	427	873	
8	0	0	0	0	541	873	
9	0	0	0	0	493	873	
10	0	0	0	0	585	872	
11	0	0	0	0	588	872	
12	0	0	0	0	629	872	
13	0	0	0	0	567	871	
14	0	0	0	0	589	872	
15	0	0	0	0	572	872	
0	0	0	0	0	550	871	
1	0	0	0	0	632	871	
2	0	0	0	0	553	871	
3	0	0	0	0	614	871	
4	0	0	0	0	575	871	
5	0	0	0	0	560	871	
6	0	0	0	0	537	871	
7	0	0	0	0	462	871	
8	0	0	0	0	503	872	
9	0	0	0	0	427	872	
10	0	0	0	0	420	872	
11	0	0	0	0	466	872	
12	0	0	0	0	370	872	
13	0	0	0	0	446	872	
14	0	0	0	0	425	872	
15	0	0	0	0	450	872	
0	0	0	0	0	475	872	
1	0	0	0	0	426	872	
2	0	0	0	0	473	872	
3	0	0	0	0	499	872	
4	0	0	0	0	413	872	
5	0	0	0	0	547	872	
6	0	0	0	0	507	872	
7	0	0	0	0	492	873	
8	0	0	0	0	584	872	
9	0	0	0	0	583	873	
10	0	0	0	0	614	873	
11	0	0	0	0	608	872	
12	0	0	0	0	616	873	
13	0	0	0	0	522	872	
14	0	0	0	0	592	872	
15	0	0	0	0	514	873	
0	0	0	0	0	517	872	
1	0	0	0	0	512	872	
2	0	0	0	0	529	872	
3	0	0	0	0	509	871	
4	0	0	0	0	593	872	
5	0	0	0	0	497	872	
6	0	0	0	0	583	872	
7	0	0	0	0	496	871	
8	0	0	0	0	494	871	
9	0	0	0	0	503	871	
10	0	0	0	0	512	871	
11	0	0	0	0	511	871	
12	0	0	0	0	515	871	
13	0	0	0	0	488	871	
14	0	0	0	0	537	871	
15	0	0	0	0	498	871	
0	0	0	0	0	511	872	
1	0	0	0	0	500	871	
2	0	0	0	0	442	872	
3	0	0	0	0	470	872	
4	0	0	0	0	414	872	
5	0	0	0	0	487	872	
6	0	0	0	0	478	872	
7	0	0	0	0	477	872	
8	0	0	0	0	505	872	
9	0	0	0	0	476	872	
10	0	0	0	0	549	872	
11	0	0	0	0	503	872	
12	0	0	0	0	503	872	
13	0	0	0	0	529	873	
14	0	0	0	0	590	872	
15	0	0	0	0	764	873	
0	0	0	0	0	709	872	
1	0	0	0	0	538	872	
2	0	0	0	0	510	872	
3	0	0	0	0	472	872	
4	0	0	0	0	480	872	
5	0	0	0	0	476	872	
6	0	0	0	0	501	871	
7	0	0	0	0	480	872	
8	0	0	0	0	495	871	
9	0	0	0	0	511	872	
10	0	0	0	0	493	871	
11	0	0	0	0	462	872	
12	0	0	0	0	531	872	
13	0	0	0	0	534	872	
14	0	0	0	0	512	872	
15	0	0	0	0	494	872	
0	0	0	0	0	514	872	
1	0	0	0	0	536	872	
2	0	0	0	0	498	872	
3	0	0	0	0	593	872	
4	0	0	0	0	512	872	
5	0	0	0	0	526	872	
6	0	0	0	0	520	872	
7	0	0	0	0	514	872	
8	0	0	0	0	495	872	
9	0	0	0	0	528	872	
10	0	0	0	0	514	872	
11	0	0	0	0	532	872	
12	0	0	0	0	503	872	
13	0	0	0	0	487	872	
14	0	0	0	0	455	872	
15	0	0	0	0	355	872	
0	0	0	0	0	351	873	
1	0	0	0	0	323	872	
2	0	0	0	0	337	872	
3	0	0	0	0	379	872	
4	0	0	0	0	369	872	
5	0	0	0	0	353	872	
6	0	0	0	0	444	872	
7	0	0	0	0	510	872	
8	0	0	0	0	614	872	
9	0	0	0	0	710	872	
10	0	0	0	0	752	872	
11	0	0	0	0	767	872	
12	0	0	0	0	731	872	
13	0	0	0	0	645	872	
14	0	0	0	0	598	872	
15	0	0	0	0	573	872	
0	0	0	0	0	464	872	
1	0	0	0	0	493	872	
2	0	0	0	0	452	872	
3	0	0	0	0	520	872	
4	0	0	0	0	492	872	
5	0	0	0	0	464	872	
6	0	0	0	0	501	872	
7	0	0	0	0	501	872	
8	0	0	0	0	498	872	
9	0	0	0	0	555	872	
10	0	0	0	0	533	872	
11	0	0	0	0	557	872	
12	0	0	0	0	556	872	
13	0	0	0	0	556	872	
14	0	0	0	0	537	872	
15	0	0	0	0	501	872	
0	0	0	0	0	529	872	
1	0	0	0	0	554	871	
2	0	0	0	0	661	872	
3	0	0	0	0	591	871	
4	0	0	0	0	518	871	
5	0	0	0	0	569	871	
6	0	0	0	0	538	871	
7	0	0	0	0	596	871	
8	0	0	0	0	489	871	
9	0	0	0	0	465	871	
10	0	0	0	0	473	871	
11	0	0	0	0	466	871	
12	0	0	0	0	446	871	
13	0	0	0	0	612	871	
14	0	0	0	0	619	871	
15	0	0	0	0	527	871	
0	0	0	0	0	433	871	
1	0	0	0	0	431	871	
2	0	0	0	0	439	871	
3	0	0	0	0	440	871	
4	0	0	0	0	425	871	
5	0	0	0	0	441	871	
6	0	0	0	0	492	871	
7	0	0	0	0	319	871	
8	0	0	0	0	353	871	
9	0	0	0	0	433	871	
10	0	0	0	0	476	870	
11	0	0	0	0	491	871	
12	0	0	0	0	522	871	
13	0	0	0	0	598	871	
14	0	0	0	0	584	871	
15	0	0	0	0	519	870	
0	0	0	0	0	590	871	
1	0	0	0	0	542	870	
2	0	0	0	0	526	870	
3	0	0	0	0	540	871	
4	0	0	0	0	511	870	
5	0	0	0	0	593	871	
6	0	0	0	0	499	870	
7	0	0	0	0	522	870	
8	0	0	0	0	503	871	
9	0	0	0	0	474	870	
10	0	0	0	0	563	871	
11	0	0	0	0	489	870	
12	0	0	0	0	462	871	
13	0	0	0	0	447	871	
14	0	0	0	0	432	871	
15	0	0	0	0	492	871	
0	0	0	0	0	476	870	
1	0	0	0	0	476	871	
2	0	0	0	0	503	871	
3	0	0	0	0	462	870	
4	0	0	0	0	516	871	
5	0	0	0	0	499	867	
6	0	0	0	0	516	867	
7	0	0	0	0	523	867	
8	0	0	0	0	515	867	
9	0	0	0	0	519	868	
10	0	0	0	0	520	867	
11	0	0	0	0	513	868	
12	0	0	0	0	518	867	
13	0	0	0	0	508	867	
14	0	0	0	0	516	867	
15	0	0	0	0	512	866	
0	0	0	0	0	508	867	
1	0	0	0	0	514	867	
2	0	0	0	0	511	867	
3	0	0	0	0	510	868	
4	0	0	0	0	540	867	
5	0	0	0	0	617	868	
6	0	0	0	0	568	868	
7	0	0	0	0	520	868	
8	0	0	0	0	591	869	
9	0	0	0	0	499	868	
10	0	0	0	0	528	869	
11	0	0	0	0	520	869	
12	0	0	0	0	417	869	
13	0	0	0	0	689	871	
14	0	0	0	0	363	867	
15	0	0	0	0	524	871	
0	0	0	0	0	599	869	
1	0	0	0	0	312	868	
2	0	0	0	0	715	872	
3	0	0	0	0	404	868	
4	0	0	0	0	461	871	
5	0	0	0	0	659	870	
6	0	0	0	0	497	868	
7	0	0	0	0	865	873	
8	0	0	0	0	391	868	
9	0	0	0	0	428	871	
10	0	0	0	0	526	870	
11	0	0	0	0	306	868	
12	0	0	0	0	689	873	
13	0	0	0	0	335	868	
14	0	0	0	0	393	871	
15	0	0	0	0	539	870	
0	0	0	0	0	292	868	
1	0	0	0	0	734	873	
2	0	0	0	0	390	868	
3	0	0	0	0	435	871	
4	0	0	0	0	585	870	
5	0	0	0	0	291	868	
6	0	0	0	0	735	873	
7	0	0	0	0	397	868	
8	0	0	0	0	456	871	
9	0	0	0	0	591	871	
10	0	0	0	0	306	868	
11	0	0	0	0	717	873	
12	0	0	0	0	417	868	
13	0	0	0	0	429	871	
14	0	0	0	0	592	871	
15	0	0	0	0	312	869	
0	0	0	0	0	763	873	
1	0	0	0	0	424	868	
2	0	0	0	0	473	871	
3	0	0	0	0	556	871	
4	0	0	0	0	281	869	
5	0	0	0	0	723	874	
6	0	0	0	0	387	868	
7	0	0	0	0	423	871	
8	0	0	0	0	590	871	
9	0	0	0	0	321	869	
10	0	0	0	0	715	874	
11	0	0	0	0	390	868	
12	0	0	0	0	419	871	
13	0	0	0	0	593	871	
14	0	0	0	0	335	869	
15	0	0	0	0	754	874	
0	0	0	0	0	392	869	
1	0	0	0	0	444	871	
2	0	0	0	0	609	871	
3	0	0	0	0	265	869	
4	0	0	0	0	746	873	
5	0	0	0	0	396	868	
6	0	0	0	0	502	872	
7	0	0	0	0	566	870	
8	0	0	0	0	341	869	
9	0	0	0	0	606	871	
10	0	0	0	0	520	871	
11	0	0	0	0	536	871	
12	0	0	0	0	504	871	
13	0	0	0	0	461	871	
14	0	0	0	0	604	871	
15	0	0	0	0	412	869	
0	0	0	0	0	490	872	
1	0	0	0	0	609	871	
2	0	0	0	0	331	870	
3	0	0	0	0	750	873	
4	0	0	0	0	385	869	
5	0	0	0	0	460	871	
6	0	0	0	0	595	871	
7	0	0	0	0	303	869	
8	0	0	0	0	726	873	
9	0	0	0	0	423	869	
10	0	0	0	0	439	871	
11	0	0	0	0	592	871	
12	0	0	0	0	343	869	
13	0	0	0	0	728	873	
14	0	0	0	0	443	869	
15	0	0	0	0	632	871	
0	0	0	0	0	800	871	
1	0	0	0	0	388	869	
2	0	0	0	0	709	873	
3	0	0	0	0	366	868	
4	0	0	0	0	417	871	
5	0	0	0	0	573	871	
6	0	0	0	0	279	869	
7	0	0	0	0	713	874	
8	0	0	0	0	368	869	
9	0	0	0	0	435	871	
10	0	0	0	0	583	871	
11	0	0	0	0	285	868	
12	0	0	0	0	753	874	
13	0	0	0	0	384	869	
14	0	0	0	0	434	872	
15	0	0	0	0	617	871	
0	0	0	0	0	301	869	
1	0	0	0	0	759	874	
2	0	0	0	0	411	869	
3	0	0	0	0	423	871	
4	0	0	0	0	620	871	
5	0	0	0	0	341	869	
6	0	0	0	0	763	874	
7	0	0	0	0	432	869	
8	0	0	0	0	443	871	
9	0	0	0	0	602	871	
10	0	0	0	0	352	869	
11	0	0	0	0	743	874	
12	0	0	0	0	407	869	
13	0	0	0	0	432	871	
14	0	0	0	0	599	871	
15	0	0	0	0	295	870	
0	0	0	0	0	704	874	
1	0	0	0	0	422	869	
2	0	0	0	0	426	871	
3	0	0	0	0	595	871	
4	0	0	0	0	293	869	
5	0	0	0	0	725	874	
6	0	0	0	0	416	869	
7	0	0	0	0	419	871	
8	0	0	0	0	629	871	
9	0	0	0	0	328	869	
10	0	0	0	0	726	874	
11	0	0	0	0	429	869	
12	0	0	0	0	438	871	
13	0	0	0	0	617	871	
14	0	0	0	0	303	869	
15	0	0	0	0	752	874	
0	0	0	0	0	419	869	
1	0	0	0	0	454	871	
2	0	0	0	0	609	871	
3	0	0	0	0	331	869	
4	0	0	0	0	724	874	
5	0	0	0	0	448	869	
6	0	0	0	0	436	871	
7	0	0	0	0	635	871	
8	0	0	0	0	331	869	
9	0	0	0	0	728	874	
10	0	0	0	0	427	869	
11	0	0	0	0	420	871	
12	0	0	0	0	596	871	
13	0	0	0	0	337	869	
14	0	0	0	0	711	874	
15	0	0	0	0	413	869	
0	0	0	0	0	414	871	
1	0	0	0	0	620	871	
2	0	0	0	0	307	869	
3	0	0	0	0	723	874	
4	0	0	0	0	414	869	
5	0	0	0	0	438	871	
6	0	0	0	0	616	871	
7	0	0	0	0	348	869	
8	0	0	0	0	914	874	
9	0	0	0	0	569	869	
10	0	0	0	0	450	871	
11	0	0	0	0	572	871	
12	0	0	0	0	273	869	
13	0	0	0	0	664	874	
14	0	0	0	0	396	869	
15	0	0	0	0	391	871	
0	0	0	0	0	568	871	
1	0	0	0	0	291	869	
2	0	0	0	0	704	874	
3	0	0	0	0	416	869	
4	0	0	0	0	396	871	
5	0	0	0	0	613	871	
6	0	0	0	0	292	869	
7	0	0	0	0	752	874	
8	0	0	0	0	397	869	
9	0	0	0	0	450	871	
10	0	0	0	0	639	871	
11	0	0	0	0	326	869	
12	0	0	0	0	738	874	
13	0	0	0	0	444	869	
14	0	0	0	0	462	871	
15	0	0	0	0	635	871	
0	0	0	0	0	346	869	
1	0	0	0	0	731	874	
2	0	0	0	0	451	868	
3	0	0	0	0	450	871	
4	0	0	0	0	629	871	
5	0	0	0	0	342	869	
6	0	0	0	0	717	874	
7	0	0	0	0	363	869	
8	0	0	0	0	415	871	
9	0	0	0	0	590	871	
10	0	0	0	0	292	869	
11	0	0	0	0	729	873	
12	0	0	0	0	401	868	
13	0	0	0	0	448	871	
14	0	0	0	0	615	871	
15	0	0	0	0	350	869	
0	0	0	0	0	703	874	
1	0	0	0	0	425	869	
2	0	0	0	0	432	871	
3	0	0	0	0	642	871	
4	0	0	0	0	297	869	
5	0	0	0	0	716	873	
6	0	0	0	0	463	869	
7	0	0	0	0	412	871	
8	0	0	0	0	595	871	
9	0	0	0	0	326	868	
10	0	0	0	0	747	873	
11	0	0	0	0	437	869	
12	0	0	0	0	449	871	
13	0	0	0	0	629	871	
14	0	0	0	0	335	869	
15	0	0	0	0	745	874	
0	0	0	0	0	448	869	
1	0	0	0	0	433	871	
2	0	0	0	0	606	871	
3	0	0	0	0	303	868	
4	0	0	0	0	731	873	
5	0	0	0	0	399	868	
6	0	0	0	0	418	871	
7	0	0	0	0	619	871	
8	0	0	0	0	296	868	
9	0	0	0	0	725	874	
10	0	0	0	0	423	869	
11	0	0	0	0	418	871	
12	0	0	0	0	572	871	
13	0	0	0	0	359	869	
14	0	0	0	0	772	874	
15	0	0	0	0	624	869	
0	0	0	0	0	588	871	
1	0	0	0	0	620	871	
2	0	0	0	0	253	869	
3	0	0	0	0	687	874	
4	0	0	0	0	372	869	
5	0	0	0	0	399	871	
6	0	0	0	0	583	871	
7	0	0	0	0	290	869	
8	0	0	0	0	726	874	
9	0	0	0	0	413	869	
10	0	0	0	0	385	871	
11	0	0	0	0	596	871	
12	0	0	0	0	312	869	
13	0	0	0	0	751	874	
14	0	0	0	0	429	869	
15	0	0	0	0	464	871	
0	0	0	0	0	636	871	
1	0	0	0	0	283	869	
2	0	0	0	0	724	874	
3	0	0	0	0	462	869	
4	0	0	0	0	419	871	
5	0	0	0	0	632	871	
6	0	0	0	0	365	869	
7	0	0	0	0	726	874	
8	0	0	0	0	452	869	
9	0	0	0	0	420	871	
10	0	0	0	0	641	871	
11	0	0	0	0	350	869	
12	0	0	0	0	706	874	
13	0	0	0	0	418	869	
14	0	0	0	0	403	871	
15	0	0	0	0	633	871	
0	0	0	0	0	280	869	
1	0	0	0	0	685	874	
2	0	0	0	0	420	869	
3	0	0	0	0	426	871	
4	0	0	0	0	656	871	
5	0	0	0	0	320	869	
6	0	0	0	0	739	874	
7	0	0	0	0	405	869	
8	0	0	0	0	439	872	
9	0	0	0	0	622	872	
10	0	0	0	0	313	869	
11	0	0	0	0	714	874	
12	0	0	0	0	425	870	
13	0	0	0	0	417	872	
14	0	0	0	0	636	872	
15	0	0	0	0	304	870	
0	0	0	0	0	742	875	
1	0	0	0	0	386	869	
2	0	0	0	0	437	872	
3	0	0	0	0	592	872	
4	0	0	0	0	391	870	
5	0	0	0	0	719	875	
6	0	0	0	0	424	870	
7	0	0	0	0	455	872	
8	0	0	0	0	632	872	
9	0	0	0	0	338	870	
10	0	0	0	0	715	875	
11	0	0	0	0	408	870	
12	0	0	0	0	388	872	
13	0	0	0	0	632	872	
14	0	0	0	0	336	870	
15	0	0	0	0	737	875	
0	0	0	0	0	431	870	
1	0	0	0	0	425	872	
2	0	0	0	0	600	872	
3	0	0	0	0	307	870	
4	0	0	0	0	723	876	
5	0	0	0	0	460	870	
6	0	0	0	0	431	873	
7	0	0	0	0	795	873	
8	0	0	0	0	508	870	
9	0	0	0	0	813	876	
10	0	0	0	0	403	871	
11	0	0	0	0	370	873	
12	0	0	0	0	613	873	
13	0	0	0	0	251	871	
14	0	0	0	0	666	876	
15	0	0	0	0	403	871	
0	0	0	0	0	350	873	
1	0	0	0	0	628	873	
2	0	0	0	0	280	871	
3	0	0	0	0	696	876	
4	0	0	0	0	432	871	
5	0	0	0	0	411	874	
6	0	0	0	0	603	874	
7	0	0	0	0	311	871	
8	0	0	0	0	719	877	
9	0	0	0	0	430	871	
10	0	0	0	0	464	874	
11	0	0	0	0	621	874	
12	0	0	0	0	321	872	
13	0	0	0	0	734	877	
14	0	0	0	0	430	872	
15	0	0	0	0	432	874	
0	0	0	0	0	623	875	
1	0	0	0	0	355	872	
2	0	0	0	0	718	877	
3	0	0	0	0	436	872	
4	0	0	0	0	389	875	
5	0	0	0	0	626	875	
6	0	0	0	0	304	872	
7	0	0	0	0	722	878	
8	0	0	0	0	398	872	
9	0	0	0	0	417	875	
10	0	0	0	0	604	875	
11	0	0	0	0	332	872	
12	0	0	0	0	673	878	
13	0	0	0	0	430	873	
14	0	0	0	0	429	876	
15	0	0	0	0	628	875	
0	0	0	0	0	320	873	
1	0	0	0	0	715	878	
2	0	0	0	0	430	873	
3	0	0	0	0	398	876	
4	0	0	0	0	626	876	
5	0	0	0	0	310	873	
6	0	0	0	0	698	878	
7	0	0	0	0	434	873	
8	0	0	0	0	437	876	
9	0	0	0	0	646	876	
10	0	0	0	0	330	874	
11	0	0	0	0	701	879	
12	0	0	0	0	420	874	
13	0	0	0	0	431	876	
14	0	0	0	0	559	876	
15	0	0	0	0	369	874	
0	0	0	0	0	779	879	
1	0	0	0	0	427	874	
2	0	0	0	0	393	877	
3	0	0	0	0	629	877	
4	0	0	0	0	331	875	
5	0	0	0	0	727	880	
6	0	0	0	0	400	875	
7	0	0	0	0	416	877	
8	0	0	0	0	653	878	
9	0	0	0	0	311	875	
10	0	0	0	0	709	880	
11	0	0	0	0	415	875	
12	0	0	0	0	404	877	
13	0	0	0	0	627	878	
14	0	0	0	0	295	875	
15	0	0	0	0	744	880	
0	0	0	0	0	427	875	
1	0	0	0	0	406	878	
2	0	0	0	0	646	878	
3	0	0	0	0	313	876	
4	0	0	0	0	691	881	
5	0	0	0	0	536	876	
6	0	0	0	0	591	878	
7	0	0	0	0	810	879	
8	0	0	0	0	312	876	
9	0	0	0	0	675	881	
10	0	0	0	0	371	876	
11	0	0	0	0	378	878	
12	0	0	0	0	598	879	
13	0	0	0	0	280	876	
14	0	0	0	0	695	881	
15	0	0	0	0	444	877	
0	0	0	0	0	375	879	
1	0	0	0	0	607	879	
2	0	0	0	0	329	877	
3	0	0	0	0	705	882	
4	0	0	0	0	418	877	
5	0	0	0	0	411	879	
6	0	0	0	0	637	879	
7	0	0	0	0	329	876	
8	0	0	0	0	727	882	
9	0	0	0	0	423	877	
10	0	0	0	0	426	880	
11	0	0	0	0	668	880	
12	0	0	0	0	327	877	
13	0	0	0	0	774	882	
14	0	0	0	0	465	878	
15	0	0	0	0	411	880	
0	0	0	0	0	681	880	
1	0	0	0	0	328	878	
2	0	0	0	0	712	883	
3	0	0	0	0	456	878	
4	0	0	0	0	388	880	
5	0	0	0	0	613	880	
6	0	0	0	0	301	878	
7	0	0	0	0	696	883	
8	0	0	0	0	389	878	
9	0	0	0	0	409	880	
10	0	0	0	0	632	881	
11	0	0	0	0	299	878	
12	0	0	0	0	768	883	
13	0	0	0	0	415	878	
14	0	0	0	0	399	881	
15	0	0	0	0	663	881	
0	0	0	0	0	314	879	
1	0	0	0	0	703	883	
2	0	0	0	0	447	879	
3	0	0	0	0	425	881	
4	0	0	0	0	623	881	
5	0	0	0	0	322	879	
6	0	0	0	0	736	884	
7	0	0	0	0	443	879	
8	0	0	0	0	399	881	
9	0	0	0	0	633	881	
10	0	0	0	0	315	879	
11	0	0	0	0	724	884	
12	0	0	0	0	412	879	
13	0	0	0	0	391	881	
14	0	0	0	0	685	881	
15	0	0	0	0	323	879	
0	0	0	0	0	731	884	
1	0	0	0	0	408	879	
2	0	0	0	0	397	881	
3	0	0	0	0	664	882	
4	0	0	0	0	319	880	
5	0	0	0	0	723	884	
6	0	0	0	0	459	879	
7	0	0	0	0	409	882	
8	0	0	0	0	643	882	
9	0	0	0	0	312	880	
10	0	0	0	0	706	884	
11	0	0	0	0	412	880	
12	0	0	0	0	391	882	
13	0	0	0	0	646	882	
14	0	0	0	0	281	879	
15	0	0	0	0	713	885	
0	0	0	0	0	439	880	
1	0	0	0	0	379	882	
2	0	0	0	0	664	883	
3	0	0	0	0	339	880	
4	0	0	0	0	694	884	
5	0	0	0	0	428	880	
6	0	0	0	0	543	882	
7	0	0	0	0	823	883	
8	0	0	0	0	403	880	
9	0	0	0	0	687	885	
10	0	0	0	0	399	880	
11	0	0	0	0	345	883	
12	0	0	0	0	626	883	
13	0	0	0	0	284	880	
14	0	0	0	0	697	885	
15	0	0	0	0	400	881	
0	0	0	0	0	376	883	
1	0	0	0	0	632	883	
2	0	0	0	0	297	880	
3	0	0	0	0	713	886	
4	0	0	0	0	416	880	
5	0	0	0	0	374	883	
6	0	0	0	0	658	883	
7	0	0	0	0	305	880	
8	0	0	0	0	725	886	
9	0	0	0	0	424	881	
10	0	0	0	0	439	883	
11	0	0	0	0	658	883	
12	0	0	0	0	335	881	
13	0	0	0	0	725	886	
14	0	0	0	0	477	881	
15	0	0	0	0	465	883	
0	0	0	0	0	667	884	
1	0	0	0	0	331	881	
2	0	0	0	0	729	886	
3	0	0	0	0	434	881	
4	0	0	0	0	395	883	
5	0	0	0	0	629	884	
6	0	0	0	0	287	881	
7	0	0	0	0	687	886	
8	0	0	0	0	401	881	
9	0	0	0	0	387	883	
10	0	0	0	0	643	884	
11	0	0	0	0	297	881	
12	0	0	0	0	706	886	
13	0	0	0	0	427	881	
14	0	0	0	0	363	883	
15	0	0	0	0	679	884	
0	0	0	0	0	309	881	
1	0	0	0	0	719	886	
2	0	0	0	0	407	881	
3	0	0	0	0	429	884	
4	0	0	0	0	658	884	
5	0	0	0	0	315	881	
6	0	0	0	0	704	887	
7	0	0	0	0	423	882	
8	0	0	0	0	424	884	
9	0	0	0	0	645	884	
10	0	0	0	0	335	881	
11	0	0	0	0	730	887	
12	0	0	0	0	441	882	
13	0	0	0	0	384	884	
14	0	0	0	0	641	884	
15	0	0	0	0	329	881	
0	0	0	0	0	691	887	
1	0	0	0	0	467	882	
2	0	0	0	0	412	884	
3	0	0	0	0	662	884	
4	0	0	0	0	322	881	
5	0	0	0	0	723	887	
6	0	0	0	0	455	881	
7	0	0	0	0	414	884	
8	0	0	0	0	626	884	
9	0	0	0	0	327	881	
10	0	0	0	0	740	887	
11	0	0	0	0	434	882	
12	0	0	0	0	409	884	
13	0	0	0	0	672	885	
14	0	0	0	0	302	882	
15	0	0	0	0	742	887	
0	0	0	0	0	434	882	
1	0	0	0	0	419	884	
2	0	0	0	0	647	885	
3	0	0	0	0	315	882	
4	0	0	0	0	729	887	
5	0	0	0	0	460	882	
6	0	0	0	0	403	884	
7	0	0	0	0	665	884	
8	0	0	0	0	296	881	
9	0	0	0	0	715	887	
10	0	0	0	0	417	882	
11	0	0	0	0	388	884	
12	0	0	0	0	658	885	
13	0	0	0	0	300	882	
14	0	0	0	0	704	887	
15	0	0	0	0	387	882	
0	0	0	0	0	377	884	
1	0	0	0	0	644	885	
2	0	0	0	0	321	882	
3	0	0	0	0	715	887	
4	0	0	0	0	534	882	
5	0	0	0	0	584	884	
6	0	0	0	0	831	885	
7	0	0	0	0	300	882	
8	0	0	0	0	670	887	
9	0	0	0	0	406	882	
10	0	0	0	0	362	884	
11	0	0	0	0	622	885	
12	0	0	0	0	265	882	
13	0	0	0	0	678	888	
14	0	0	0	0	439	883	
15	0	0	0	0	392	885	
0	0	0	0	0	635	885	
1	0	0	0	0	298	882	
2	0	0	0	0	696	888	
3	0	0	0	0	428	883	
4	0	0	0	0	381	885	
5	0	0	0	0	650	885	
6	0	0	0	0	318	883	
7	0	0	0	0	699	888	
8	0	0	0	0	444	882	
9	0	0	0	0	408	885	
10	0	0	0	0	667	885	
11	0	0	0	0	332	882	
12	0	0	0	0	743	888	
13	0	0	0	0	460	883	
14	0	0	0	0	409	884	
15	0	0	0	0	667	886	
0	0	0	0	0	333	882	
1	0	0	0	0	728	888	
2	0	0	0	0	423	883	
3	0	0	0	0	379	885	
4	0	0	0	0	636	886	
5	0	0	0	0	295	882	
6	0	0	0	0	690	888	
7	0	0	0	0	394	882	
8	0	0	0	0	381	884	
9	0	0	0	0	643	886	
10	0	0	0	0	297	882	
11	0	0	0	0	736	888	
12	0	0	0	0	420	883	
13	0	0	0	0	382	885	
14	0	0	0	0	659	886	
15	0	0	0	0	312	882	
0	0	0	0	0	728	888	
1	0	0	0	0	437	883	
2	0	0	0	0	390	885	
3	0	0	0	0	648	886	
4	0	0	0	0	340	883	
5	0	0	0	0	689	888	
6	0	0	0	0	443	883	
7	0	0	0	0	401	885	
8	0	0	0	0	678	885	
9	0	0	0	0	303	883	
10	0	0	0	0	712	888	
11	0	0	0	0	450	883	
12	0	0	0	0	384	885	
13	0	0	0	0	661	885	
14	0	0	0	0	320	882	
15	0	0	0	0	712	888	
0	0	0	0	0	455	883	
1	0	0	0	0	384	884	
2	0	0	0	0	675	885	
3	0	0	0	0	310	883	
4	0	0	0	0	727	888	
5	0	0	0	0	453	883	
6	0	0	0	0	399	885	
7	0	0	0	0	657	885	
8	0	0	0	0	328	883	
9	0	0	0	0	732	888	
10	0	0	0	0	441	883	
11	0	0	0	0	375	884	
12	0	0	0	0	673	885	
13	0	0	0	0	327	882	
14	0	0	0	0	732	888	
15	0	0	0	0	460	883	
0	0	0	0	0	376	884	
1	0	0	0	0	670	885	
2	0	0	0	0	318	882	
3	0	0	0	0	716	888	
4	0	0	0	0	440	883	
5	0	0	0	0	393	884	
6	0	0	0	0	682	885	
7	0	0	0	0	329	883	
8	0	0	0	0	735	888	
9	0	0	0	0	443	882	
10	0	0	0	0	397	884	
11	0	0	0	0	679	885	
12	0	0	0	0	312	882	
13	0	0	0	0	716	888	
14	0	0	0	0	449	883	
15	0	0	0	0	371	884	
0	0	0	0	0	653	885	
1	0	0	0	0	291	882	
2	0	0	0	0	715	888	
3	0	0	0	0	429	882	
4	0	0	0	0	363	884	
5	0	0	0	0	658	885	
6	0	0	0	0	324	882	
7	0	0	0	0	704	888	
8	0	0	0	0	425	883	
9	0	0	0	0	494	884	
10	0	0	0	0	857	885	
11	0	0	0	0	458	882	
12	0	0	0	0	720	888	
13	0	0	0	0	399	882	
14	0	0	0	0	353	884	
15	0	0	0	0	595	886	
0	0	0	0	0	270	882	
1	0	0	0	0	686	888	
2	0	0	0	0	394	883	
3	0	0	0	0	404	885	
4	0	0	0	0	643	885	
5	0	0	0	0	303	882	
6	0	0	0	0	708	887	
7	0	0	0	0	431	882	
8	0	0	0	0	374	884	
9	0	0	0	0	637	885	
10	0	0	0	0	337	882	
11	0	0	0	0	724	887	
12	0	0	0	0	435	883	
13	0	0	0	0	412	884	
14	0	0	0	0	684	885	
15	0	0	0	0	331	882	
0	0	0	0	0	746	888	
1	0	0	0	0	465	882	
2	0	0	0	0	425	884	
3	0	0	0	0	675	885	
4	0	0	0	0	336	882	
5	0	0	0	0	740	887	
6	0	0	0	0	476	883	
7	0	0	0	0	388	884	
8	0	0	0	0	655	885	
9	0	0	0	0	301	882	
10	0	0	0	0	715	888	
11	0	0	0	0	417	883	
12	0	0	0	0	362	884	
13	0	0	0	0	653	885	
14	0	0	0	0	295	882	
15	0	0	0	0	695	888	
0	0	0	0	0	424	882	
1	0	0	0	0	406	884	
2	0	0	0	0	654	885	
3	0	0	0	0	327	882	
4	0	0	0	0	692	888	
5	0	0	0	0	453	882	
6	0	0	0	0	391	884	
7	0	0	0	0	676	885	
8	0	0	0	0	297	882	
9	0	0	0	0	714	887	
10	0	0	0	0	447	882	
11	0	0	0	0	393	884	
12	0	0	0	0	662	885	
13	0	0	0	0	319	882	
14	0	0	0	0	721	887	
15	0	0	0	0	452	883	
0	0	0	0	0	391	884	
1	0	0	0	0	674	885	
2	0	0	0	0	313	882	
3	0	0	0	0	724	887	
4	0	0	0	0	442	882	
5	0	0	0	0	374	884	
6	0	0	0	0	686	885	
7	0	0	0	0	307	882	
8	0	0	0	0	707	887	
9	0	0	0	0	440	882	
10	0	0	0	0	398	884	
11	0	0	0	0	676	885	
12	0	0	0	0	316	882	
13	0	0	0	0	702	887	
14	0	0	0	0	449	882	
15	0	0	0	0	383	884	
0	0	0	0	0	667	885	
1	0	0	0	0	308	882	
2	0	0	0	0	711	887	
3	0	0	0	0	423	882	
4	0	0	0	0	397	884	
5	0	0	0	0	697	885	
6	0	0	0	0	325	882	
7	0	0	0	0	733	887	
8	0	0	0	0	445	882	
9	0	0	0	0	384	884	
10	0	0	0	0	679	885	
11	0	0	0	0	316	882	
12	0	0	0	0	737	887	
13	0	0	0	0	461	881	
14	0	0	0	0	383	884	
15	0	0	0	0	688	885	
0	0	0	0	0	303	882	
1	0	0	0	0	718	887	
2	0	0	0	0	473	882	
3	0	0	0	0	396	884	
4	0	0	0	0	699	885	
5	0	0	0	0	315	881	
6	0	0	0	0	722	887	
7	0	0	0	0	441	881	
8	0	0	0	0	384	884	
9	0	0	0	0	654	884	
10	0	0	0	0	312	882	
11	0	0	0	0	698	887	
12	0	0	0	0	437	882	
13	0	0	0	0	377	884	
14	0	0	0	0	671	885	
15	0	0	0	0	299	881	
0	0	0	0	0	727	887	
1	0	0	0	0	530	882	
2	0	0	0	0	572	883	
3	0	0	0	0	809	884	
4	0	0	0	0	307	881	
5	0	0	0	0	672	887	
6	0	0	0	0	394	882	
7	0	0	0	0	329	884	
8	0	0	0	0	635	884	
9	0	0	0	0	284	881	
10	0	0	0	0	676	886	
11	0	0	0	0	408	881	
12	0	0	0	0	383	883	
13	0	0	0	0	655	884	
14	0	0	0	0	314	881	
15	0	0	0	0	700	887	
0	0	0	0	0	462	881	
1	0	0	0	0	364	883	
2	0	0	0	0	663	884	
3	0	0	0	0	336	881	
4	0	0	0	0	734	887	
5	0	0	0	0	442	881	
6	0	0	0	0	403	883	
7	0	0	0	0	668	884	
8	0	0	0	0	339	881	
9	0	0	0	0	742	886	
10	0	0	0	0	467	881	
11	0	0	0	0	399	883	
12	0	0	0	0	671	884	
13	0	0	0	0	336	881	
14	0	0	0	0	697	886	
15	0	0	0	0	474	881	
0	0	0	0	0	352	883	
1	0	0	0	0	647	884	
2	0	0	0	0	299	881	
3	0	0	0	0	697	886	
4	0	0	0	0	410	881	
5	0	0	0	0	371	883	
6	0	0	0	0	637	884	
7	0	0	0	0	324	880	
8	0	0	0	0	678	886	
9	0	0	0	0	465	881	
10	0	0	0	0	362	883	
11	0	0	0	0	670	884	
12	0	0	0	0	338	880	
13	0	0	0	0	696	886	
14	0	0	0	0	423	881	
15	0	0	0	0	360	883	
0	0	0	0	0	677	883	
1	0	0	0	0	308	880	
2	0	0	0	0	709	886	
3	0	0	0	0	447	881	
4	0	0	0	0	392	882	
5	0	0	0	0	673	883	
6	0	0	0	0	312	880	
7	0	0	0	0	720	886	
8	0	0	0	0	451	880	
9	0	0	0	0	379	883	
10	0	0	0	0	675	883	
11	0	0	0	0	321	880	
12	0	0	0	0	712	886	
13	0	0	0	0	435	881	
14	0	0	0	0	394	883	
15	0	0	0	0	687	884	
0	0	0	0	0	305	880	
1	0	0	0	0	704	885	
2	0	0	0	0	471	880	
3	0	0	0	0	391	882	
4	0	0	0	0	679	883	
5	0	0	0	0	326	880	
6	0	0	0	0	720	885	
7	0	0	0	0	456	880	
8	0	0	0	0	384	882	
9	0	0	0	0	692	883	
10	0	0	0	0	311	880	
11	0	0	0	0	697	885	
12	0	0	0	0	455	880	
13	0	0	0	0	388	882	
14	0	0	0	0	693	883	
15	0	0	0	0	345	880	
0	0	0	0	0	707	885	
1	0	0	0	0	449	880	
2	0	0	0	0	396	882	
3	0	0	0	0	675	883	
4	0	0	0	0	334	880	
5	0	0	0	0	712	885	
6	0	0	0	0	444	880	
7	0	0	0	0	384	881	
8	0	0	0	0	695	883	
9	0	0	0	0	306	880	
10	0	0	0	0	728	885	
11	0	0	0	0	444	880	
12	0	0	0	0	372	881	
13	0	0	0	0	664	883	
14	0	0	0	0	327	879	
15	0	0	0	0	689	885	
0	0	0	0	0	447	880	
1	0	0	0	0	363	881	
2	0	0	0	0	676	883	
3	0	0	0	0	323	880	
4	0	0	0	0	697	884	
5	0	0	0	0	450	880	
6	0	0	0	0	369	881	
7	0	0	0	0	788	882	
8	0	0	0	0	477	879	
9	0	0	0	0	831	884	
10	0	0	0	0	426	879	
11	0	0	0	0	326	881	
12	0	0	0	0	664	883	
13	0	0	0	0	281	879	
14	0	0	0	0	661	884	
15	0	0	0	0	397	880	
0	0	0	0	0	354	881	
1	0	0	0	0	668	883	
2	0	0	0	0	312	879	
3	0	0	0	0	694	884	
4	0	0	0	0	440	880	
5	0	0	0	0	362	881	
6	0	0	0	0	672	882	
7	0	0	0	0	312	879	
8	0	0	0	0	703	884	
9	0	0	0	0	436	879	
10	0	0	0	0	395	881	
11	0	0	0	0	684	882	
12	0	0	0	0	326	879	
13	0	0	0	0	731	884	
14	0	0	0	0	487	879	
15	0	0	0	0	364	881	
0	0	0	0	0	715	882	
1	0	0	0	0	331	879	
2	0	0	0	0	738	884	
3	0	0	0	0	453	879	
4	0	0	0	0	398	880	
5	0	0	0	0	680	882	
6	0	0	0	0	326	879	
7	0	0	0	0	677	883	
8	0	0	0	0	430	879	
9	0	0	0	0	350	880	
10	0	0	0	0	643	882	
11	0	0	0	0	306	878	
12	0	0	0	0	684	883	
13	0	0	0	0	468	879	
14	0	0	0	0	359	880	
15	0	0	0	0	684	881	
0	0	0	0	0	312	879	
1	0	0	0	0	685	884	
2	0	0	0	0	471	879	
3	0	0	0	0	403	880	
4	0	0	0	0	680	881	
5	0	0	0	0	321	878	
6	0	0	0	0	700	883	
7	0	0	0	0	474	878	
8	0	0	0	0	367	880	
9	0	0	0	0	692	881	
10	0	0	0	0	323	878	
11	0	0	0	0	681	883	
12	0	0	0	0	463	879	
13	0	0	0	0	385	880	
14	0	0	0	0	675	881	
15	0	0	0	0	327	878	
0	0	0	0	0	708	883	
1	0	0	0	0	464	878	
2	0	0	0	0	379	880	
3	0	0	0	0	692	881	
4	0	0	0	0	329	878	
5	0	0	0	0	705	883	
6	0	0	0	0	485	878	
7	0	0	0	0	370	880	
8	0	0	0	0	678	881	
9	0	0	0	0	343	878	
10	0	0	0	0	705	883	
11	0	0	0	0	461	878	
12	0	0	0	0	374	880	
13	0	0	0	0	693	881	
14	0	0	0	0	330	878	
15	0	0	0	0	698	883	
0	0	0	0	0	451	878	
1	0	0	0	0	385	879	
2	0	0	0	0	715	881	
3	0	0	0	0	343	877	
4	0	0	0	0	735	882	
5	0	0	0	0	452	878	
6	0	0	0	0	371	880	
7	0	0	0	0	676	880	
8	0	0	0	0	303	877	
9	0	0	0	0	697	883	
10	0	0	0	0	444	878	
11	0	0	0	0	369	879	
12	0	0	0	0	673	880	
13	0	0	0	0	320	877	
14	0	0	0	0	684	883	
15	0	0	0	0	475	878	
0	0	0	0	0	347	879	
1	0	0	0	0	796	881	
2	0	0	0	0	475	877	
3	0	0	0	0	793	882	
4	0	0	0	0	429	877	
5	0	0	0	0	312	879	
6	0	0	0	0	697	880	
7	0	0	0	0	275	876	
8	0	0	0	0	696	882	
9	0	0	0	0	451	877	
10	0	0	0	0	355	879	
11	0	0	0	0	652	880	
12	0	0	0	0	302	877	
13	0	0	0	0	678	882	
14	0	0	0	0	444	877	
15	0	0	0	0	350	879	
0	0	0	0	0	673	880	
1	0	0	0	0	328	877	
2	0	0	0	0	716	882	
3	0	0	0	0	454	877	
4	0	0	0	0	374	879	
5	0	0	0	0	691	880	
6	0	0	0	0	347	877	
7	0	0	0	0	718	882	
8	0	0	0	0	503	877	
9	0	0	0	0	418	879	
10	0	0	0	0	721	880	
11	0	0	0	0	334	877	
12	0	0	0	0	718	882	
13	0	0	0	0	482	877	
14	0	0	0	0	354	879	
15	0	0	0	0	705	880	
0	0	0	0	0	307	876	
1	0	0	0	0	648	881	
2	0	0	0	0	440	877	
3	0	0	0	0	349	878	
4	0	0	0	0	664	880	
5	0	0	0	0	321	877	
6	0	0	0	0	678	882	
7	0	0	0	0	437	877	
8	0	0	0	0	347	879	
9	0	0	0	0	673	880	
10	0	0	0	0	316	877	
11	0	0	0	0	687	882	
12	0	0	0	0	497	877	
13	0	0	0	0	361	878	
14	0	0	0	0	670	880	
15	0	0	0	0	343	876	
0	0	0	0	0	686	882	
1	0	0	0	0	439	877	
2	0	0	0	0	375	878	
3	0	0	0	0	665	880	
4	0	0	0	0	333	876	
5	0	0	0	0	691	881	
6	0	0	0	0	448	877	
7	0	0	0	0	374	878	
8	0	0	0	0	691	879	
9	0	0	0	0	344	876	
10	0	0	0	0	715	881	
11	0	0	0	0	457	877	
12	0	0	0	0	353	878	
13	0	0	0	0	713	880	
14	0	0	0	0	338	876	
15	0	0	0	0	710	881	
0	0	0	0	0	492	877	
1	0	0	0	0	359	878	
2	0	0	0	0	702	879	
3	0	0	0	0	321	876	
4	0	0	0	0	718	881	
5	0	0	0	0	470	876	
6	0	0	0	0	364	878	
7	0	0	0	0	713	879	
8	0	0	0	0	295	876	
9	0	0	0	0	699	881	
10	0	0	0	0	455	876	
11	0	0	0	0	357	878	
12	0	0	0	0	675	879	
13	0	0	0	0	319	876	
14	0	0	0	0	672	881	
15	0	0	0	0	454	876	
0	0	0	0	0	387	878	
1	0	0	0	0	688	879	
2	0	0	0	0	331	876	
3	0	0	0	0	724	881	
4	0	0	0	0	632	876	
5	0	0	0	0	518	878	
6	0	0	0	0	743	879	
7	0	0	0	0	318	876	
8	0	0	0	0	670	881	
9	0	0	0	0	423	876	
10	0	0	0	0	345	877	
11	0	0	0	0	666	879	
12	0	0	0	0	284	875	
13	0	0	0	0	667	880	
14	0	0	0	0	455	876	
15	0	0	0	0	348	877	
0	0	0	0	0	692	879	
1	0	0	0	0	291	875	
2	0	0	0	0	686	881	
3	0	0	0	0	450	876	
4	0	0	0	0	359	877	
5	0	0	0	0	703	879	
6	0	0	0	0	333	876	
7	0	0	0	0	675	880	
8	0	0	0	0	495	876	
9	0	0	0	0	387	877	
10	0	0	0	0	703	879	
11	0	0	0	0	352	876	
12	0	0	0	0	739	880	
13	0	0	0	0	481	876	
14	0	0	0	0	378	877	
15	0	0	0	0	719	879	
0	0	0	0	0	343	875	
1	0	0	0	0	705	880	
2	0	0	0	0	458	876	
3	0	0	0	0	359	877	
4	0	0	0	0	692	879	
5	0	0	0	0	295	875	
6	0	0	0	0	652	880	
7	0	0	0	0	436	876	
8	0	0	0	0	365	877	
9	0	0	0	0	665	879	
10	0	0	0	0	310	875	
11	0	0	0	0	683	880	
12	0	0	0	0	462	875	
13	0	0	0	0	352	877	
14	0	0	0	0	676	879	
15	0	0	0	0	318	875	
0	0	0	0	0	668	880	
1	0	0	0	0	477	876	
2	0	0	0	0	365	876	
3	0	0	0	0	702	879	
4	0	0	0	0	340	875	
5	0	0	0	0	679	880	
6	0	0	0	0	481	876	
7	0	0	0	0	347	877	
8	0	0	0	0	702	878	
9	0	0	0	0	345	875	
10	0	0	0	0	689	880	
11	0	0	0	0	476	876	
12	0	0	0	0	337	876	
13	0	0	0	0	716	878	
14	0	0	0	0	335	875	
15	0	0	0	0	688	880	
0	0	0	0	0	475	875	
1	0	0	0	0	369	876	
2	0	0	0	0	697	878	
3	0	0	0	0	333	875	
4	0	0	0	0	699	880	
5	0	0	0	0	480	875	
6	0	0	0	0	380	876	
7	0	0	0	0	696	879	
8	0	0	0	0	343	875	
9	0	0	0	0	698	880	
10	0	0	0	0	463	875	
11	0	0	0	0	388	876	
12	0	0	0	0	734	878	
13	0	0	0	0	313	875	
14	0	0	0	0	725	880	
15	0	0	0	0	487	875	
0	0	0	0	0	366	876	
1	0	0	0	0	709	878	
2	0	0	0	0	323	875	
3	0	0	0	0	666	879	
4	0	0	0	0	456	875	
5	0	0	0	0	380	876	
6	0	0	0	0	689	878	
7	0	0	0	0	320	874	
8	0	0	0	0	684	879	
9	0	0	0	0	451	875	
10	0	0	0	0	378	876	
11	0	0	0	0	696	878	
12	0	0	0	0	348	874	
13	0	0	0	0	820	880	
14	0	0	0	0	651	875	
15	0	0	0	0	451	876	
0	0	0	0	0	694	879	
1	0	0	0	0	269	874	
2	0	0	0	0	668	880	
3	0	0	0	0	422	875	
4	0	0	0	0	291	876	
5	0	0	0	0	658	878	
6	0	0	0	0	304	874	
7	0	0	0	0	633	880	
8	0	0	0	0	480	875	
9	0	0	0	0	324	876	
10	0	0	0	0	702	878	
11	0	0	0	0	324	874	
12	0	0	0	0	667	879	
13	0	0	0	0	447	875	
14	0	0	0	0	344	875	
15	0	0	0	0	696	878	
0	0	0	0	0	327	874	
1	0	0	0	0	709	879	
2	0	0	0	0	503	875	
3	0	0	0	0	366	876	
4	0	0	0	0	732	878	
5	0	0	0	0	326	875	
6	0	0	0	0	732	879	
7	0	0	0	0	489	875	
8	0	0	0	0	360	876	
9	0	0	0	0	750	878	
10	0	0	0	0	343	874	
11	0	0	0	0	690	879	
12	0	0	0	0	467	875	
13	0	0	0	0	336	876	
14	0	0	0	0	686	878	
15	0	0	0	0	319	874	
0	0	0	0	0	665	879	
1	0	0	0	0	462	875	
2	0	0	0	0	335	876	
3	0	0	0	0	688	878	
4	0	0	0	0	328	874	
5	0	0	0	0	704	879	
6	0	0	0	0	479	875	
7	0	0	0	0	352	876	
8	0	0	0	0	718	878	
9	0	0	0	0	323	874	
10	0	0	0	0	659	879	
11	0	0	0	0	472	875	
12	0	0	0	0	373	876	
13	0	0	0	0	706	878	
14	0	0	0	0	333	874	
15	0	0	0	0	683	879	
0	0	0	0	0	463	874	
1	0	0	0	0	337	875	
2	0	0	0	0	708	878	
3	0	0	0	0	345	874	
4	0	0	0	0	673	879	
5	0	0	0	0	475	875	
6	0	0	0	0	347	876	
7	0	0	0	0	712	878	
8	0	0	0	0	333	874	
9	0	0	0	0	680	879	
10	0	0	0	0	472	875	
11	0	0	0	0	353	876	
12	0	0	0	0	726	878	
13	0	0	0	0	323	874	
14	0	0	0	0	686	879	
15	0	0	0	0	499	875	
0	0	0	0	0	344	876	
1	0	0	0	0	731	878	
2	0	0	0	0	337	874	
3	0	0	0	0	695	879	
4	0	0	0	0	459	874	
5	0	0	0	0	362	875	
6	0	0	0	0	748	878	
7	0	0	0	0	331	874	
8	0	0	0	0	691	879	
9	0	0	0	0	492	874	
10	0	0	0	0	354	876	
11	0	0	0	0	718	878	
12	0	0	0	0	334	874	
13	0	0	0	0	703	879	
14	0	0	0	0	479	875	
15	0	0	0	0	339	876	
0	0	0	0	0	718	878	
1	0	0	0	0	325	874	
2	0	0	0	0	665	879	
3	0	0	0	0	470	875	
4	0	0	0	0	343	876	
5	0	0	0	0	713	878	
6	0	0	0	0	338	874	
7	0	0	0	0	665	879	
8	0	0	0	0	479	874	
9	0	0	0	0	361	875	
10	0	0	0	0	877	878	
11	0	0	0	0	514	874	
12	0	0	0	0	731	879	
13	0	0	0	0	473	875	
14	0	0	0	0	322	876	
15	0	0	0	0	670	878	
0	0	0	0	0	297	874	
1	0	0	0	0	640	880	
2	0	0	0	0	438	875	
3	0	0	0	0	329	876	
4	0	0	0	0	663	878	
5	0	0	0	0	312	875	
6	0	0	0	0	664	879	
7	0	0	0	0	460	875	
8	0	0	0	0	334	876	
9	0	0	0	0	720	878	
10	0	0	0	0	308	874	
11	0	0	0	0	702	880	
12	0	0	0	0	481	875	
13	0	0	0	0	362	876	
14	0	0	0	0	725	878	
15	0	0	0	0	352	874	
0	0	0	0	0	696	880	
1	0	0	0	0	483	875	
2	0	0	0	0	387	876	
3	0	0	0	0	740	878	
4	0	0	0	0	363	874	
5	0	0	0	0	705	879	
6	0	0	0	0	507	875	
7	0	0	0	0	324	876	
8	0	0	0	0	720	878	
9	0	0	0	0	300	875	
10	0	0	0	0	651	880	
11	0	0	0	0	455	875	
12	0	0	0	0	299	876	
13	0	0	0	0	686	878	
14	0	0	0	0	291	875	
15	0	0	0	0	632	880	
0	0	0	0	0	472	875	
1	0	0	0	0	324	876	
2	0	0	0	0	704	879	
3	0	0	0	0	340	875	
4	0	0	0	0	665	880	
5	0	0	0	0	491	875	
6	0	0	0	0	355	876	
7	0	0	0	0	704	879	
8	0	0	0	0	324	874	
9	0	0	0	0	674	880	
10	0	0	0	0	505	876	
11	0	0	0	0	343	876	
12	0	0	0	0	720	879	
13	0	0	0	0	336	875	
14	0	0	0	0	666	880	
15	0	0	0	0	491	876	
0	0	0	0	0	331	876	
1	0	0	0	0	703	879	
2	0	0	0	0	335	875	
3	0	0	0	0	687	880	
4	0	0	0	0	497	875	
5	0	0	0	0	356	876	
6	0	0	0	0	718	879	
7	0	0	0	0	343	875	
8	0	0	0	0	671	880	
9	0	0	0	0	511	876	
10	0	0	0	0	331	876	
11	0	0	0	0	729	879	
12	0	0	0	0	342	875	
13	0	0	0	0	694	880	
14	0	0	0	0	489	876	
15	0	0	0	0	358	876	
0	0	0	0	0	754	879	
1	0	0	0	0	358	875	
2	0	0	0	0	676	880	
3	0	0	0	0	462	876	
4	0	0	0	0	356	876	
5	0	0	0	0	729	879	
6	0	0	0	0	309	875	
7	0	0	0	0	679	880	
8	0	0	0	0	479	876	
9	0	0	0	0	321	876	
10	0	0	0	0	722	879	
11	0	0	0	0	320	875	
12	0	0	0	0	674	880	
13	0	0	0	0	486	876	
14	0	0	0	0	329	877	
15	0	0	0	0	806	879	
0	0	0	0	0	510	875	
1	0	0	0	0	817	880	
2	0	0	0	0	494	876	
3	0	0	0	0	302	877	
4	0	0	0	0	682	879	
5	0	0	0	0	289	875	
6	0	0	0	0	632	880	
7	0	0	0	0	461	876	
8	0	0	0	0	301	877	
9	0	0	0	0	703	880	
10	0	0	0	0	295	876	
11	0	0	0	0	624	880	
12	0	0	0	0	493	876	
13	0	0	0	0	315	877	
14	0	0	0	0	709	880	
15	0	0	0	0	331	875	
0	0	0	0	0	676	880	
1	0	0	0	0	488	876	
2	0	0	0	0	337	877	
3	0	0	0	0	731	880	
4	0	0	0	0	319	876	
5	0	0	0	0	711	881	
6	0	0	0	0	488	876	
7	0	0	0	0	361	877	
8	0	0	0	0	742	880	
9	0	0	0	0	367	876	
10	0	0	0	0	686	880	
11	0	0	0	0	512	876	
12	0	0	0	0	358	877	
13	0	0	0	0	732	880	
14	0	0	0	0	322	876	
15	0	0	0	0	646	881	
0	0	0	0	0	472	876	
1	0	0	0	0	303	877	
2	0	0	0	0	707	880	
3	0	0	0	0	318	876	
4	0	0	0	0	664	881	
5	0	0	0	0	470	876	
6	0	0	0	0	321	877	
7	0	0	0	0	741	880	
8	0	0	0	0	312	876	
9	0	0	0	0	668	881	
10	0	0	0	0	474	877	
11	0	0	0	0	342	877	
12	0	0	0	0	719	880	
13	0	0	0	0	335	876	
14	0	0	0	0	672	881	
15	0	0	0	0	479	876	
0	0	0	0	0	336	877	
1	0	0	0	0	729	880	
2	0	0	0	0	350	876	
3	0	0	0	0	653	881	
4	0	0	0	0	494	877	
5	0	0	0	0	308	877	
6	0	0	0	0	735	880	
7	0	0	0	0	329	876	
8	0	0	0	0	668	881	
9	0	0	0	0	471	876	
10	0	0	0	0	343	878	
11	0	0	0	0	733	880	
12	0	0	0	0	357	876	
13	0	0	0	0	657	881	
14	0	0	0	0	491	877	
15	0	0	0	0	327	877	
0	0	0	0	0	754	880	
1	0	0	0	0	331	876	
2	0	0	0	0	699	881	
3	0	0	0	0	489	877	
4	0	0	0	0	320	877	
5	0	0	0	0	757	880	
6	0	0	0	0	355	876	
7	0	0	0	0	672	881	
8	0	0	0	0	496	876	
9	0	0	0	0	325	877	
10	0	0	0	0	753	880	
11	0	0	0	0	327	876	
12	0	0	0	0	684	881	
13	0	0	0	0	528	876	
14	0	0	0	0	318	878	
15	0	0	0	0	738	880	
0	0	0	0	0	342	876	
1	0	0	0	0	675	881	
2	0	0	0	0	478	877	
3	0	0	0	0	329	877	
4	0	0	0	0	770	880	
5	0	0	0	0	340	876	
6	0	0	0	0	682	881	
7	0	0	0	0	457	877	
8	0	0	0	0	321	878	
9	0	0	0	0	712	880	
10	0	0	0	0	328	876	
11	0	0	0	0	642	881	
12	0	0	0	0	483	877	
13	0	0	0	0	332	878	
14	0	0	0	0	721	880	
15	0	0	0	0	345	876	
0	0	0	0	0	666	881	
1	0	0	0	0	482	877	
2	0	0	0	0	387	878	
3	0	0	0	0	894	880	
4	0	0	0	0	517	876	
5	0	0	0	0	717	881	
6	0	0	0	0	487	877	
7	0	0	0	0	282	878	
8	0	0	0	0	669	880	
9	0	0	0	0	277	876	
10	0	0	0	0	620	881	
11	0	0	0	0	461	877	
12	0	0	0	0	309	878	
13	0	0	0	0	681	881	
14	0	0	0	0	327	876	
15	0	0	0	0	628	882	
0	0	0	0	0	489	877	
1	0	0	0	0	286	878	
2	0	0	0	0	750	880	
3	0	0	0	0	336	877	
4	0	0	0	0	664	882	
5	0	0	0	0	486	878	
6	0	0	0	0	334	878	
7	0	0	0	0	740	881	
8	0	0	0	0	349	876	
9	0	0	0	0	667	882	
10	0	0	0	0	513	878	
11	0	0	0	0	369	878	
12	0	0	0	0	745	881	
13	0	0	0	0	376	877	
14	0	0	0	0	676	881	
15	0	0	0	0	496	878	
0	0	0	0	0	371	878	
1	0	0	0	0	754	881	
2	0	0	0	0	341	876	
3	0	0	0	0	632	881	
4	0	0	0	0	461	878	
5	0	0	0	0	317	878	
6	0	0	0	0	690	881	
7	0	0	0	0	340	876	
8	0	0	0	0	653	882	
9	0	0	0	0	491	878	
10	0	0	0	0	314	877	
11	0	0	0	0	751	881	
12	0	0	0	0	322	876	
13	0	0	0	0	636	881	
14	0	0	0	0	478	878	
15	0	0	0	0	304	878	
0	0	0	0	0	727	881	
1	0	0	0	0	339	877	
2	0	0	0	0	666	882	
3	0	0	0	0	516	878	
4	0	0	0	0	314	878	
5	0	0	0	0	728	881	
6	0	0	0	0	311	877	
7	0	0	0	0	641	882	
8	0	0	0	0	498	877	
9	0	0	0	0	355	878	
10	0	0	0	0	724	881	
11	0	0	0	0	345	877	
12	0	0	0	0	649	882	
13	0	0	0	0	492	878	
14	0	0	0	0	305	878	
15	0	0	0	0	735	881	
0	0	0	0	0	337	876	
1	0	0	0	0	646	882	
2	0	0	0	0	496	877	
3	0	0	0	0	328	878	
4	0	0	0	0	749	881	
5	0	0	0	0	309	876	
6	0	0	0	0	662	882	
7	0	0	0	0	508	878	
8	0	0	0	0	355	878	
9	0	0	0	0	732	881	
10	0	0	0	0	354	876	
11	0	0	0	0	686	882	
12	0	0	0	0	502	878	
13	0	0	0	0	310	878	
14	0	0	0	0	732	881	
15	0	0	0	0	324	877	
0	0	0	0	0	656	881	
1	0	0	0	0	501	877	
2	0	0	0	0	345	878	
3	0	0	0	0	759	881	
4	0	0	0	0	386	876	
5	0	0	0	0	656	881	
6	0	0	0	0	498	877	
7	0	0	0	0	334	878	
8	0	0	0	0	741	881	
9	0	0	0	0	358	876	
10	0	0	0	0	678	882	
11	0	0	0	0	524	878	
12	0	0	0	0	335	878	
13	0	0	0	0	732	881	
14	0	0	0	0	327	877	
15	0	0	0	0	658	882	
0	0	0	0	0	476	878	
1	0	0	0	0	316	878	
2	0	0	0	0	728	881	
3	0	0	0	0	324	876	
4	0	0	0	0	681	881	
5	0	0	0	0	493	877	
6	0	0	0	0	304	878	
7	0	0	0	0	738	881	
8	0	0	0	0	361	877	
9	0	0	0	0	802	882	
10	0	0	0	0	642	878	
11	0	0	0	0	408	878	
12	0	0	0	0	731	881	
13	0	0	0	0	301	876	
14	0	0	0	0	591	881	
15	0	0	0	0	470	877	
0	0	0	0	0	289	878	
1	0	0	0	0	711	881	
2	0	0	0	0	337	876	
3	0	0	0	0	637	881	
4	0	0	0	0	488	878	
5	0	0	0	0	295	878	
6	0	0	0	0	703	881	
7	0	0	0	0	329	876	
8	0	0	0	0	639	882	
9	0	0	0	0	487	878	
10	0	0	0	0	311	878	
11	0	0	0	0	744	881	
12	0	0	0	0	344	877	
13	0	0	0	0	649	882	
14	0	0	0	0	509	878	
15	0	0	0	0	346	877	
0	0	0	0	0	761	881	
1	0	0	0	0	359	876	
2	0	0	0	0	667	881	
3	0	0	0	0	516	878	
4	0	0	0	0	364	878	
5	0	0	0	0	772	881	
6	0	0	0	0	330	876	
7	0	0	0	0	632	881	
8	0	0	0	0	482	877	
9	0	0	0	0	293	878	
10	0	0	0	0	724	881	
11	0	0	0	0	332	876	
12	0	0	0	0	620	881	
13	0	0	0	0	478	877	
14	0	0	0	0	287	878	
15	0	0	0	0	704	881	
0	0	0	0	0	351	876	
1	0	0	0	0	641	881	
2	0	0	0	0	514	878	
3	0	0	0	0	334	878	
4	0	0	0	0	737	881	
5	0	0	0	0	356	876	
6	0	0	0	0	636	881	
7	0	0	0	0	494	877	
8	0	0	0	0	307	878	
9	0	0	0	0	775	881	
10	0	0	0	0	357	876	
11	0	0	0	0	659	881	
12	0	0	0	0	511	877	
13	0	0	0	0	297	878	
14	0	0	0	0	751	881	
15	0	0	0	0	330	876	
0	0	0	0	0	656	881	
1	0	0	0	0	512	877	
2	0	0	0	0	316	878	
3	0	0	0	0	750	881	
4	0	0	0	0	351	876	
5	0	0	0	0	652	881	
6	0	0	0	0	524	878	
7	0	0	0	0	324	878	
8	0	0	0	0	736	881	
9	0	0	0	0	354	876	
10	0	0	0	0	646	881	
11	0	0	0	0	507	878	
12	0	0	0	0	309	878	
13	0	0	0	0	765	881	
14	0	0	0	0	333	876	
15	0	0	0	0	640	881	
0	0	0	0	0	487	877	
1	0	0	0	0	311	878	
2	0	0	0	0	777	881	
3	0	0	0	0	353	876	
4	0	0	0	0	658	881	
5	0	0	0	0	501	878	
6	0	0	0	0	313	878	
7	0	0	0	0	731	881	
8	0	0	0	0	371	876	
9	0	0	0	0	643	881	
10	0	0	0	0	508	877	
11	0	0	0	0	327	878	
12	0	0	0	0	766	881	
13	0	0	0	0	344	876	
14	0	0	0	0	688	881	
15	0	0	0	0	531	878	
0	0	0	0	0	331	878	
1	0	0	0	0	772	881	
2	0	0	0	0	345	876	
3	0	0	0	0	658	881	
4	0	0	0	0	499	877	
5	0	0	0	0	285	878	
6	0	0	0	0	752	881	
7	0	0	0	0	353	877	
8	0	0	0	0	643	881	
9	0	0	0	0	501	878	
10	0	0	0	0	315	878	
11	0	0	0	0	740	881	
12	0	0	0	0	350	877	
13	0	0	0	0	623	881	
14	0	0	0	0	513	877	
15	0	0	0	0	370	877	
0	0	0	0	0	956	881	
1	0	0	0	0	536	876	
2	0	0	0	0	654	881	
3	0	0	0	0	480	878	
4	0	0	0	0	276	877	
5	0	0	0	0	700	880	
6	0	0	0	0	305	876	
7	0	0	0	0	624	881	
8	0	0	0	0	462	877	
9	0	0	0	0	280	877	
10	0	0	0	0	735	881	
11	0	0	0	0	301	876	
12	0	0	0	0	665	881	
13	0	0	0	0	504	877	
14	0	0	0	0	299	877	
15	0	0	0	0	717	880	
0	0	0	0	0	369	876	
1	0	0	0	0	639	881	
2	0	0	0	0	503	877	
3	0	0	0	0	305	877	
4	0	0	0	0	759	881	
5	0	0	0	0	359	876	
6	0	0	0	0	667	881	
7	0	0	0	0	523	877	
8	0	0	0	0	316	877	
9	0	0	0	0	773	880	
10	0	0	0	0	373	876	
11	0	0	0	0	644	881	
12	0	0	0	0	518	877	
13	0	0	0	0	323	877	
14	0	0	0	0	744	881	
15	0	0	0	0	339	876	
0	0	0	0	0	607	881	
1	0	0	0	0	506	877	
2	0	0	0	0	275	877	
3	0	0	0	0	705	880	
4	0	0	0	0	343	876	
5	0	0	0	0	622	881	
6	0	0	0	0	499	877	
7	0	0	0	0	305	877	
8	0	0	0	0	733	880	
9	0	0	0	0	335	876	
10	0	0	0	0	646	881	
11	0	0	0	0	505	877	
12	0	0	0	0	312	877	
13	0	0	0	0	750	880	
14	0	0	0	0	308	876	
15	0	0	0	0	673	881	
0	0	0	0	0	512	877	
1	0	0	0	0	300	877	
2	0	0	0	0	743	880	
3	0	0	0	0	345	876	
4	0	0	0	0	613	881	
5	0	0	0	0	484	877	
6	0	0	0	0	309	877	
7	0	0	0	0	714	881	
8	0	0	0	0	365	876	
9	0	0	0	0	624	881	
10	0	0	0	0	518	877	
11	0	0	0	0	303	877	
12	0	0	0	0	744	881	
13	0	0	0	0	361	876	
14	0	0	0	0	655	881	
15	0	0	0	0	527	877	
0	0	0	0	0	314	877	
1	0	0	0	0	750	880	
2	0	0	0	0	357	876	
3	0	0	0	0	649	881	
4	0	0	0	0	505	877	
5	0	0	0	0	299	877	
6	0	0	0	0	756	880	
7	0	0	0	0	358	876	
8	0	0	0	0	637	881	
9	0	0	0	0	509	877	
10	0	0	0	0	304	877	
11	0	0	0	0	766	881	
12	0	0	0	0	371	876	
13	0	0	0	0	622	881	
14	0	0	0	0	522	877	
15	0	0	0	0	308	877	
0	0	0	0	0	777	880	
1	0	0	0	0	342	876	
2	0	0	0	0	625	881	
3	0	0	0	0	543	877	
4	0	0	0	0	327	877	
5	0	0	0	0	750	881	
6	0	0	0	0	354	876	
7	0	0	0	0	652	881	
8	0	0	0	0	479	877	
9	0	0	0	0	292	877	
10	0	0	0	0	761	880	
11	0	0	0	0	343	876	
12	0	0	0	0	620	881	
13	0	0	0	0	492	877	
14	0	0	0	0	295	877	
15	0	0	0	0	759	880	
0	0	0	0	0	343	876	
1	0	0	0	0	638	881	
2	0	0	0	0	511	877	
3	0	0	0	0	357	877	
4	0	0	0	0	899	880	
5	0	0	0	0	536	876	
6	0	0	0	0	716	881	
7	0	0	0	0	481	877	
8	0	0	0	0	258	876	
9	0	0	0	0	718	880	
10	0	0	0	0	296	876	
11	0	0	0	0	586	881	
12	0	0	0	0	472	877	
13	0	0	0	0	287	877	
14	0	0	0	0	712	880	
15	0	0	0	0	341	876	
0	0	0	0	0	624	881	
1	0	0	0	0	459	877	
2	0	0	0	0	293	877	
3	0	0	0	0	766	881	
4	0	0	0	0	356	876	
5	0	0	0	0	609	881	
6	0	0	0	0	530	877	
7	0	0	0	0	275	877	
8	0	0	0	0	791	880	
9	0	0	0	0	350	876	
10	0	0	0	0	679	881	
11	0	0	0	0	536	877	
12	0	0	0	0	349	877	
13	0	0	0	0	775	881	
14	0	0	0	0	412	876	
15	0	0	0	0	673	881	
0	0	0	0	0	539	877	
1	0	0	0	0	318	877	
2	0	0	0	0	763	881	
3	0	0	0	0	341	876	
4	0	0	0	0	623	881	
5	0	0	0	0	475	877	
6	0	0	0	0	283	877	
7	0	0	0	0	721	880	
8	0	0	0	0	323	876	
9	0	0	0	0	635	880	
10	0	0	0	0	472	877	
11	0	0	0	0	271	877	
12	0	0	0	0	742	880	
13	0	0	0	0	332	876	
14	0	0	0	0	645	881	
15	0	0	0	0	526	877	
0	0	0	0	0	326	877	
1	0	0	0	0	719	881	
2	0	0	0	0	347	876	
3	0	0	0	0	638	881	
4	0	0	0	0	508	876	
5	0	0	0	0	318	877	
6	0	0	0	0	755	880	
7	0	0	0	0	357	876	
8	0	0	0	0	610	881	
9	0	0	0	0	468	877	
10	0	0	0	0	324	877	
11	0	0	0	0	770	880	
12	0	0	0	0	325	876	
13	0	0	0	0	637	881	
14	0	0	0	0	511	877	
15	0	0	0	0	307	877	
0	0	0	0	0	766	880	
1	0	0	0	0	355	876	
2	0	0	0	0	614	881	
3	0	0	0	0	509	877	
4	0	0	0	0	336	877	
5	0	0	0	0	728	880	
6	0	0	0	0	352	876	
7	0	0	0	0	648	880	
8	0	0	0	0	531	877	
9	0	0	0	0	344	876	
10	0	0	0	0	742	880	
11	0	0	0	0	348	876	
12	0	0	0	0	619	881	
13	0	0	0	0	547	877	
14	0	0	0	0	288	877	
15	0	0	0	0	759	880	
0	0	0	0	0	380	876	
1	0	0	0	0	661	880	
2	0	0	0	0	486	877	
3	0	0	0	0	327	877	
4	0	0	0	0	778	880	
5	0	0	0	0	325	875	
6	0	0	0	0	647	880	
7	0	0	0	0	546	877	
8	0	0	0	0	268	876	
9	0	0	0	0	788	880	
10	0	0	0	0	363	875	
11	0	0	0	0	627	880	
12	0	0	0	0	493	876	
13	0	0	0	0	300	877	
14	0	0	0	0	737	880	
15	0	0	0	0	348	876	
0	0	0	0	0	629	880	
1	0	0	0	0	465	876	
2	0	0	0	0	303	877	
3	0	0	0	0	899	880	
4	0	0	0	0	533	876	
5	0	0	0	0	718	880	
6	0	0	0	0	488	877	
7	0	0	0	0	273	876	
8	0	0	0	0	691	880	
9	0	0	0	0	327	876	
10	0	0	0	0	608	880	
11	0	0	0	0	471	876	
12	0	0	0	0	286	877	
13	0	0	0	0	714	880	
14	0	0	0	0	347	875	
15	0	0	0	0	615	880	
0	0	0	0	0	502	876	
1	0	0	0	0	287	876	
2	0	0	0	0	779	880	
3	0	0	0	0	367	876	
4	0	0	0	0	626	880	
5	0	0	0	0	511	876	
6	0	0	0	0	318	876	
7	0	0	0	0	771	880	
8	0	0	0	0	342	875	
9	0	0	0	0	634	880	
10	0	0	0	0	534	876	
11	0	0	0	0	315	876	
12	0	0	0	0	795	880	
13	0	0	0	0	368	875	
14	0	0	0	0	634	880	
15	0	0	0	0	536	877	
0	0	0	0	0	311	876	
1	0	0	0	0	742	880	
2	0	0	0	0	360	875	
3	0	0	0	0	588	880	
4	0	0	0	0	478	876	
5	0	0	0	0	287	876	
6	0	0	0	0	735	880	
7	0	0	0	0	339	875	
8	0	0	0	0	591	880	
9	0	0	0	0	505	877	
10	0	0	0	0	300	876	
11	0	0	0	0	758	880	
12	0	0	0	0	332	875	
13	0	0	0	0	624	880	
14	0	0	0	0	505	877	
15	0	0	0	0	315	876	
0	0	0	0	0	765	880	
1	0	0	0	0	353	875	
2	0	0	0	0	617	880	
3	0	0	0	0	507	876	
4	0	0	0	0	291	876	
5	0	0	0	0	760	880	
6	0	0	0	0	339	875	
7	0	0	0	0	644	880	
8	0	0	0	0	535	876	
9	0	0	0	0	296	876	
10	0	0	0	0	756	880	
11	0	0	0	0	353	875	
12	0	0	0	0	611	880	
13	0	0	0	0	508	876	
14	0	0	0	0	309	876	
15	0	0	0	0	749	880	
0	0	0	0	0	350	876	
1	0	0	0	0	654	880	
2	0	0	0	0	528	876	
3	0	0	0	0	308	876	
4	0	0	0	0	773	880	
5	0	0	0	0	383	876	
6	0	0	0	0	603	880	
7	0	0	0	0	530	876	
8	0	0	0	0	323	876	
9	0	0	0	0	724	880	
10	0	0	0	0	389	875	
11	0	0	0	0	628	880	
12	0	0	0	0	511	876	
13	0	0	0	0	348	876	
14	0	0	0	0	759	880	
15	0	0	0	0	375	875	
0	0	0	0	0	647	880	
1	0	0	0	0	536	877	
2	0	0	0	0	324	876	
3	0	0	0	0	745	880	
4	0	0	0	0	353	875	
5	0	0	0	0	590	880	
6	0	0	0	0	516	876	
7	0	0	0	0	305	876	
8	0	0	0	0	755	880	
9	0	0	0	0	345	875	
10	0	0	0	0	606	880	
11	0	0	0	0	543	876	
12	0	0	0	0	289	876	
13	0	0	0	0	753	880	
14	0	0	0	0	358	875	
15	0	0	0	0	786	880	
0	0	0	0	0	699	876	
1	0	0	0	0	408	876	
2	0	0	0	0	761	880	
3	0	0	0	0	298	875	
4	0	0	0	0	578	880	
5	0	0	0	0	469	876	
6	0	0	0	0	247	876	
7	0	0	0	0	720	880	
8	0	0	0	0	327	875	
9	0	0	0	0	609	880	
10	0	0	0	0	495	876	
11	0	0	0	0	294	876	
12	0	0	0	0	729	880	
13	0	0	0	0	342	875	
14	0	0	0	0	633	880	
15	0	0	0	0	497	876	
0	0	0	0	0	320	876	
1	0	0	0	0	763	880	
2	0	0	0	0	346	875	
3	0	0	0	0	623	880	
4	0	0	0	0	536	876	
5	0	0	0	0	328	876	
6	0	0	0	0	791	880	
7	0	0	0	0	379	875	
8	0	0	0	0	661	879	
9	0	0	0	0	556	876	
10	0	0	0	0	318	876	
11	0	0	0	0	804	880	
12	0	0	0	0	373	875	
13	0	0	0	0	625	880	
14	0	0	0	0	505	876	
15	0	0	0	0	271	876	
0	0	0	0	0	785	880	
1	0	0	0	0	340	875	
2	0	0	0	0	598	879	
3	0	0	0	0	504	876	
4	0	0	0	0	282	876	
5	0	0	0	0	758	880	
6	0	0	0	0	347	875	
7	0	0	0	0	597	880	
8	0	0	0	0	512	876	
9	0	0	0	0	302	876	
10	0	0	0	0	792	880	
11	0	0	0	0	348	874	
12	0	0	0	0	613	880	
13	0	0	0	0	525	876	
14	0	0	0	0	318	876	
15	0	0	0	0	748	879	
0	0	0	0	0	344	875	
1	0	0	0	0	631	880	
2	0	0	0	0	507	876	
3	0	0	0	0	284	876	
4	0	0	0	0	770	880	
5	0	0	0	0	354	875	
6	0	0	0	0	605	879	
7	0	0	0	0	511	876	
8	0	0	0	0	307	876	
9	0	0	0	0	743	880	
10	0	0	0	0	336	875	
11	0	0	0	0	609	879	
12	0	0	0	0	524	876	
13	0	0	0	0	292	876	
14	0	0	0	0	776	880	
15	0	0	0	0	368	875	
0	0	0	0	0	638	880	
1	0	0	0	0	502	876	
2	0	0	0	0	319	876	
3	0	0	0	0	786	880	
4	0	0	0	0	367	875	
5	0	0	0	0	630	879	
6	0	0	0	0	512	876	
7	0	0	0	0	322	876	
8	0	0	0	0	789	880	
9	0	0	0	0	391	875	
10	0	0	0	0	643	879	
11	0	0	0	0	520	876	
12	0	0	0	0	308	876	
13	0	0	0	0	771	879	
14	0	0	0	0	357	875	
15	0	0	0	0	623	880	
0	0	0	0	0	510	876	
1	0	0	0	0	345	876	
2	0	0	0	0	731	880	
3	0	0	0	0	371	875	
4	0	0	0	0	621	879	
5	0	0	0	0	492	876	
6	0	0	0	0	309	876	
7	0	0	0	0	769	880	
8	0	0	0	0	349	875	
9	0	0	0	0	625	879	
10	0	0	0	0	572	876	
11	0	0	0	0	460	876	
12	0	0	0	0	934	879	
13	0	0	0	0	361	874	
14	0	0	0	0	592	879	
15	0	0	0	0	482	876	
0	0	0	0	0	265	875	
1	0	0	0	0	767	879	
2	0	0	0	0	313	875	
3	0	0	0	0	600	880	
4	0	0	0	0	460	876	
5	0	0	0	0	280	875	
6	0	0	0	0	780	879	
7	0	0	0	0	347	875	
8	0	0	0	0	634	880	
9	0	0	0	0	505	876	
10	0	0	0	0	325	876	
11	0	0	0	0	756	879	
12	0	0	0	0	376	875	
13	0	0	0	0	598	879	
14	0	0	0	0	537	876	
15	0	0	0	0	318	875	
0	0	0	0	0	775	880	
1	0	0	0	0	384	875	
2	0	0	0	0	630	879	
3	0	0	0	0	563	876	
4	0	0	0	0	331	875	
5	0	0	0	0	793	879	
6	0	0	0	0	382	874	
7	0	0	0	0	615	879	
8	0	0	0	0	527	876	
9	0	0	0	0	287	875	
10	0	0	0	0	757	879	
11	0	0	0	0	324	875	
12	0	0	0	0	576	879	
13	0	0	0	0	511	876	
14	0	0	0	0	291	875	
15	0	0	0	0	723	879	
0	0	0	0	0	367	875	
1	0	0	0	0	588	879	
2	0	0	0	0	512	876	
3	0	0	0	0	297	875	
4	0	0	0	0	746	879	
5	0	0	0	0	356	874	
6	0	0	0	0	581	879	
7	0	0	0	0	537	876	
8	0	0	0	0	322	875	
9	0	0	0	0	796	879	
10	0	0	0	0	352	874	
11	0	0	0	0	594	879	
12	0	0	0	0	515	875	
13	0	0	0	0	299	875	
14	0	0	0	0	764	879	
15	0	0	0	0	354	874	
0	0	0	0	0	592	879	
1	0	0	0	0	539	876	
2	0	0	0	0	288	875	
3	0	0	0	0	741	879	
4	0	0	0	0	382	874	
5	0	0	0	0	579	879	
6	0	0	0	0	512	876	
7	0	0	0	0	333	875	
8	0	0	0	0	760	879	
9	0	0	0	0	346	874	
10	0	0	0	0	588	879	
11	0	0	0	0	513	876	
12	0	0	0	0	305	875	
13	0	0	0	0	764	879	
14	0	0	0	0	376	874	
15	0	0	0	0	609	879	
0	0	0	0	0	537	876	
1	0	0	0	0	307	875	
2	0	0	0	0	774	879	
3	0	0	0	0	359	875	
4	0	0	0	0	635	879	
5	0	0	0	0	534	876	
6	0	0	0	0	315	875	
7	0	0	0	0	760	879	
8	0	0	0	0	375	874	
9	0	0	0	0	566	879	
10	0	0	0	0	518	875	
11	0	0	0	0	281	875	
12	0	0	0	0	768	879	
13	0	0	0	0	380	874	
14	0	0	0	0	592	879	
15	0	0	0	0	519	875	
0	0	0	0	0	267	875	
1	0	0	0	0	751	879	
2	0	0	0	0	387	875	
3	0	0	0	0	742	879	
4	0	0	0	0	724	876	
5	0	0	0	0	419	875	
6	0	0	0	0	737	879	
7	0	0	0	0	359	874	
8	0	0	0	0	504	879	
9	0	0	0	0	511	875	
10	0	0	0	0	252	875	
11	0	0	0	0	758	879	
12	0	0	0	0	359	875	
13	0	0	0	0	561	879	
14	0	0	0	0	503	876	
15	0	0	0	0	288	875	
0	0	0	0	0	763	879	
1	0	0	0	0	354	874	
2	0	0	0	0	549	879	
3	0	0	0	0	545	876	
4	0	0	0	0	286	875	
5	0	0	0	0	780	879	
6	0	0	0	0	367	874	
7	0	0	0	0	609	879	
8	0	0	0	0	544	875	
9	0	0	0	0	324	875	
10	0	0	0	0	789	879	
11	0	0	0	0	375	874	
12	0	0	0	0	601	879	
13	0	0	0	0	549	876	
14	0	0	0	0	334	875	
15	0	0	0	0	771	879	
0	0	0	0	0	367	874	
1	0	0	0	0	580	878	
2	0	0	0	0	531	875	
3	0	0	0	0	282	875	
4	0	0	0	0	732	879	
5	0	0	0	0	327	874	
6	0	0	0	0	570	879	
7	0	0	0	0	506	875	
8	0	0	0	0	278	875	
9	0	0	0	0	750	879	
10	0	0	0	0	376	874	
11	0	0	0	0	580	879	
12	0	0	0	0	524	875	
13	0	0	0	0	312	874	
14	0	0	0	0	767	879	
15	0	0	0	0	371	874	
0	0	0	0	0	582	878	
1	0	0	0	0	526	875	
2	0	0	0	0	305	875	
3	0	0	0	0	762	879	
4	0	0	0	0	353	874	
5	0	0	0	0	575	879	
6	0	0	0	0	560	876	
7	0	0	0	0	277	875	
8	0	0	0	0	787	879	
9	0	0	0	0	338	874	
10	0	0	0	0	617	879	
11	0	0	0	0	526	875	
12	0	0	0	0	309	875	
13	0	0	0	0	769	879	
14	0	0	0	0	377	874	
15	0	0	0	0	574	878	
0	0	0	0	0	505	876	
1	0	0	0	0	282	875	
2	0	0	0	0	762	879	
3	0	0	0	0	369	874	
4	0	0	0	0	570	878	
5	0	0	0	0	528	875	
6	0	0	0	0	331	875	
7	0	0	0	0	765	879	
8	0	0	0	0	376	874	
9	0	0	0	0	535	878	
10	0	0	0	0	554	875	
11	0	0	0	0	325	875	
12	0	0	0	0	772	879	
13	0	0	0	0	385	874	
14	0	0	0	0	603	879	
15	0	0	0	0	550	875	
0	0	0	0	0	307	875	
1	0	0	0	0	780	879	
2	0	0	0	0	344	874	
3	0	0	0	0	567	878	
4	0	0	0	0	525	876	
5	0	0	0	0	306	875	
6	0	0	0	0	770	879	
7	0	0	0	0	345	874	
8	0	0	0	0	563	878	
9	0	0	0	0	538	875	
10	0	0	0	0	320	875	
11	0	0	0	0	765	879	
12	0	0	0	0	387	874	
13	0	0	0	0	570	878	
14	0	0	0	0	704	875	
15	0	0	0	0	500	875	
0	0	0	0	0	867	879	
1	0	0	0	0	367	873	
2	0	0	0	0	527	878	
3	0	0	0	0	496	875	
4	0	0	0	0	263	875	
5	0	0	0	0	738	879	
6	0	0	0	0	333	874	
7	0	0	0	0	525	878	
8	0	0	0	0	478	875	
9	0	0	0	0	287	875	
10	0	0	0	0	760	879	
11	0	0	0	0	353	873	
12	0	0	0	0	568	878	
13	0	0	0	0	549	875	
14	0	0	0	0	289	874	
15	0	0	0	0	743	879	
0	0	0	0	0	363	873	
1	0	0	0	0	603	878	
2	0	0	0	0	568	875	
3	0	0	0	0	312	874	
4	0	0	0	0	806	879	
5	0	0	0	0	371	873	
6	0	0	0	0	571	878	
7	0	0	0	0	564	875	
8	0	0	0	0	328	874	
9	0	0	0	0	793	879	
10	0	0	0	0	399	874	
11	0	0	0	0	563	878	
12	0	0	0	0	548	875	
13	0	0	0	0	275	875	
14	0	0	0	0	753	879	
15	0	0	0	0	364	873	
0	0	0	0	0	561	878	
1	0	0	0	0	505	875	
2	0	0	0	0	279	874	
3	0	0	0	0	755	879	
4	0	0	0	0	342	874	
5	0	0	0	0	542	878	
6	0	0	0	0	527	875	
7	0	0	0	0	285	874	
8	0	0	0	0	766	879	
9	0	0	0	0	382	873	
10	0	0	0	0	563	878	
11	0	0	0	0	531	875	
12	0	0	0	0	305	874	
13	0	0	0	0	768	879	
14	0	0	0	0	372	873	
15	0	0	0	0	613	878	
0	0	0	0	0	511	875	
1	0	0	0	0	287	875	
2	0	0	0	0	758	879	
3	0	0	0	0	366	874	
4	0	0	0	0	575	878	
5	0	0	0	0	551	875	
6	0	0	0	0	324	874	
7	0	0	0	0	800	879	
8	0	0	0	0	352	874	
9	0	0	0	0	555	878	
10	0	0	0	0	555	875	
11	0	0	0	0	326	874	
12	0	0	0	0	753	879	
13	0	0	0	0	369	873	
14	0	0	0	0	580	877	
15	0	0	0	0	510	875	
0	0	0	0	0	287	874	
1	0	0	0	0	767	879	
2	0	0	0	0	422	873	
3	0	0	0	0	548	878	
4	0	0	0	0	580	875	
5	0	0	0	0	293	874	
6	0	0	0	0	759	879	
7	0	0	0	0	373	873	
8	0	0	0	0	539	878	
9	0	0	0	0	572	875	
10	0	0	0	0	305	874	
11	0	0	0	0	802	879	
12	0	0	0	0	394	874	
13	0	0	0	0	541	878	
14	0	0	0	0	591	875	
15	0	0	0	0	260	874	
0	0	0	0	0	764	879	
1	0	0	0	0	380	874	
2	0	0	0	0	546	878	
3	0	0	0	0	536	875	
4	0	0	0	0	299	874	
5	0	0	0	0	759	879	
6	0	0	0	0	370	874	
7	0	0	0	0	583	878	
8	0	0	0	0	527	875	
9	0	0	0	0	308	874	
10	0	0	0	0	791	879	
11	0	0	0	0	540	873	
12	0	0	0	0	729	878	
13	0	0	0	0	546	875	
14	0	0	0	0	314	874	
15	0	0	0	0	733	879	
0	0	0	0	0	329	874	
1	0	0	0	0	540	878	
2	0	0	0	0	504	875	
3	0	0	0	0	268	874	
4	0	0	0	0	737	879	
5	0	0	0	0	357	874	
6	0	0	0	0	519	878	
7	0	0	0	0	550	875	
8	0	0	0	0	291	874	
9	0	0	0	0	771	879	
10	0	0	0	0	373	874	
11	0	0	0	0	569	878	
12	0	0	0	0	470	874	
13	0	0	0	0	534	874	
14	0	0	0	0	538	875	
15	0	0	0	0	548	875	
0	0	0	0	0	542	875	
1	0	0	0	0	536	875	
2	0	0	0	0	552	875	
3	0	0	0	0	538	876	
4	0	0	0	0	499	876	
5	0	0	0	0	554	876	
6	0	0	0	0	520	876	
7	0	0	0	0	599	875	
8	0	0	0	0	464	876	
9	0	0	0	0	532	875	
10	0	0	0	0	481	875	
11	0	0	0	0	482	875	
12	0	0	0	0	448	875	
13	0	0	0	0	502	875	
14	0	0	0	0	538	875	
15	0	0	0	0	526	875	
0	0	0	0	0	447	875	
1	0	0	0	0	479	875	
2	0	0	0	0	522	875	
3	0	0	0	0	505	875	
4	0	0	0	0	688	875	
5	0	0	0	0	539	875	
6	0	0	0	0	564	875	
7	0	0	0	0	641	875	
8	0	0	0	0	404	875	
9	0	0	0	0	565	875	
10	0	0	0	0	512	875	
11	0	0	0	0	497	874	
12	0	0	0	0	559	875	
13	0	0	0	0	423	874	
14	0	0	0	0	554	874	
15	0	0	0	0	526	874	
0	0	0	0	0	415	873	
1	0	0	0	0	511	873	
2	0	0	0	0	492	873	
3	0	0	0	0	577	873	
4	0	0	0	0	438	873	
5	0	0	0	0	534	873	
6	0	0	0	0	593	872	
7	0	0	0	0	465	872	
8	0	0	0	0	638	872	
9	0	0	0	0	530	872	
10	0	0	0	0	555	871	
11	0	0	0	0	512	872	
12	0	0	0	0	403	872	
13	0	0	0	0	521	872	
14	0	0	0	0	336	872	
15	0	0	0	0	553	872	
0	0	0	0	0	486	872	
1	0	0	0	0	388	871	
2	0	0	0	0	379	872	
3	0	0	0	0	304	872	
4	0	0	0	0	229	872	
5	0	0	0	0	314	873	
6	0	0	0	0	296	872	
7	0	0	0	0	445	873	
8	0	0	0	0	360	872	
9	0	0	0	0	551	872	
10	0	0	0	0	532	873	
11	0	0	0	0	392	873	
12	0	0	0	0	444	873	
13	0	0	0	0	227	872	
14	0	0	0	0	179	872	
15	0	0	0	0	316	873	
0	0	0	0	0	205	873	
1	0	0	0	0	359	873	
2	0	0	0	0	235	873	
3	0	0	0	0	336	872	
4	0	0	0	0	399	873	
5	0	0	0	0	388	873	
6	0	0	0	0	736	873	
7	0	0	0	0	685	873	
8	0	0	0	0	639	873	
9	0	0	0	0	647	873	
10	0	0	0	0	553	873	
11	0	0	0	0	738	873	
12	0	0	0	0	559	873	
13	0	0	0	0	623	873	
14	0	0	0	0	678	873	
15	0	0	0	0	507	873	
0	0	0	0	0	705	873	
1	0	0	0	0	602	873	
2	0	0	0	0	582	873	
3	0	0	0	0	756	874	
4	0	0	0	0	573	873	
5	0	0	0	0	769	873	
6	0	0	0	0	568	873	
7	0	0	0	0	589	873	
8	0	0	0	0	728	874	
9	0	0	0	0	545	873	
10	0	0	0	0	815	874	
11	0	0	0	0	553	873	
12	0	0	0	0	711	873	
13	0	0	0	0	702	874	
14	0	0	0	0	604	873	
15	0	0	0	0	760	873	
0	0	0	0	0	600	873	
1	0	0	0	0	636	873	
2	0	0	0	0	705	874	
3	0	0	0	0	484	873	
4	0	0	0	0	755	874	
5	0	0	0	0	480	873	
6	0	0	0	0	541	873	
7	0	0	0	0	589	874	
8	0	0	0	0	448	873	
9	0	0	0	0	611	873	
10	0	0	0	0	444	873	
11	0	0	0	0	469	873	
12	0	0	0	0	591	873	
13	0	0	0	0	437	873	
14	0	0	0	0	651	873	
15	0	0	0	0	447	873	
0	0	0	0	0	491	873	
1	0	0	0	0	550	873	
2	0	0	0	0	422	873	
3	0	0	0	0	619	873	
4	0	0	0	0	441	873	
5	0	0	0	0	509	873	
6	0	0	0	0	529	874	
7	0	0	0	0	358	873	
8	0	0	0	0	674	873	
9	0	0	0	0	418	873	
10	0	0	0	0	477	873	
11	0	0	0	0	559	874	
12	0	0	0	0	390	873	
13	0	0	0	0	652	873	
14	0	0	0	0	383	873	
15	0	0	0	0	462	873	
0	0	0	0	0	596	873	
1	0	0	0	0	359	872	
2	0	0	0	0	628	873	
3	0	0	0	0	386	873	
4	0	0	0	0	490	873	
5	0	0	0	0	594	873	
6	0	0	0	0	323	873	
7	0	0	0	0	681	873	
8	0	0	0	0	345	873	
9	0	0	0	0	492	873	
10	0	0	0	0	597	873	
11	0	0	0	0	346	873	
12	0	0	0	0	629	873	
13	0	0	0	0	415	873	
14	0	0	0	0	516	873	
15	0	0	0	0	546	873	
0	0	0	0	0	364	873	
1	0	0	0	0	629	873	
2	0	0	0	0	446	873	
3	0	0	0	0	464	873	
4	0	0	0	0	599	873	
5	0	0	0	0	356	872	
6	0	0	0	0	704	873	
7	0	0	0	0	481	873	
8	0	0	0	0	489	873	
9	0	0	0	0	615	873	
10	0	0	0	0	403	873	
11	0	0	0	0	637	873	
12	0	0	0	0	370	873	
13	0	0	0	0	542	873	
14	0	0	0	0	607	873	
15	0	0	0	0	335	873	
0	0	0	0	0	635	873	
1	0	0	0	0	384	873	
2	0	0	0	0	448	873	
3	0	0	0	0	571	873	
4	0	0	0	0	414	873	
5	0	0	0	0	654	873	
6	0	0	0	0	476	873	
7	0	0	0	0	662	873	
8	0	0	0	0	770	873	
9	0	0	0	0	377	873	
10	0	0	0	0	648	873	
11	0	0	0	0	406	873	
12	0	0	0	0	440	873	
13	0	0	0	0	534	874	
14	0	0	0	0	362	872	
15	0	0	0	0	626	874	
0	0	0	0	0	388	873	
1	0	0	0	0	477	873	
2	0	0	0	0	615	874	
3	0	0	0	0	405	873	
4	0	0	0	0	654	873	
5	0	0	0	0	400	873	
6	0	0	0	0	507	873	
7	0	0	0	0	570	874	
8	0	0	0	0	462	873	
9	0	0	0	0	594	873	
10	0	0	0	0	435	873	
11	0	0	0	0	519	873	
12	0	0	0	0	627	874	
13	0	0	0	0	473	873	
14	0	0	0	0	648	873	
15	0	0	0	0	503	873	
0	0	0	0	0	536	873	
1	0	0	0	0	630	874	
2	0	0	0	0	433	873	
3	0	0	0	0	695	874	
4	0	0	0	0	428	873	
5	0	0	0	0	497	873	
6	0	0	0	0	599	874	
7	0	0	0	0	440	873	
8	0	0	0	0	664	874	
9	0	0	0	0	401	874	
10	0	0	0	0	480	873	
11	0	0	0	0	611	874	
12	0	0	0	0	455	873	
13	0	0	0	0	654	873	
14	0	0	0	0	505	874	
15	0	0	0	0	518	874	
0	0	0	0	0	599	874	
1	0	0	0	0	522	874	
2	0	0	0	0	608	874	
3	0	0	0	0	547	873	
4	0	0	0	0	538	874	
5	0	0	0	0	716	874	
6	0	0	0	0	434	874	
7	0	0	0	0	650	874	
8	0	0	0	0	517	874	
9	0	0	0	0	588	874	
10	0	0	0	0	587	875	
11	0	0	0	0	424	874	
12	0	0	0	0	597	875	
13	0	0	0	0	491	875	
14	0	0	0	0	499	874	
15	0	0	0	0	451	875	
0	0	0	0	0	331	875	
1	0	0	0	0	456	874	
2	0	0	0	0	328	875	
3	0	0	0	0	279	875	
4	0	0	0	0	289	875	
5	0	0	0	0	291	875	
6	0	0	0	0	308	875	
7	0	0	0	0	279	875	
8	0	0	0	0	339	875	
9	0	0	0	0	373	876	
10	0	0	0	0	344	876	
11	0	0	0	0	390	875	
12	0	0	0	0	441	876	
13	0	0	0	0	401	876	
14	0	0	0	0	456	876	
15	0	0	0	0	450	876	
0	0	0	0	0	528	876	
1	0	0	0	0	497	876	
2	0	0	0	0	481	877	
