# OpenSignals Text File Format. Version 1
# {"98:D3:11:FD:1F:39": {"position": 0, "device": "bitalino_rev", "device name": "98:D3:11:FD:1F:39", "device connection": "/dev/tty.BITalino-1F-39-DevB", "sampling rate": 100, "resolution": [4, 1, 1, 1, 1, 10, 10], "firmware version": 1281, "comments": "You Matter To Me, Trump", "keywords": "", "mode": 0, "sync interval": 2, "date": "2022-1-28", "time": "17:53:16.544", "channels": [5, 6], "sensor": ["ECGBIT", "EDABITREV"], "label": ["A5", "A6"], "column": ["nSeq", "I1", "I2", "O1", "O2", "A5", "A6"], "special": [{}, {}], "digital IO": [0, 0, 1, 1]}}
# EndOfHeader
0	0	0	0	0	446	540	
1	0	0	0	0	496	540	
2	0	0	0	0	514	540	
3	0	0	0	0	531	540	
4	0	0	0	0	488	540	
5	0	0	0	0	488	540	
6	0	0	0	0	468	540	
7	0	0	0	0	463	540	
8	0	0	0	0	407	540	
9	0	0	0	0	511	540	
10	0	0	0	0	456	541	
11	0	0	0	0	564	541	
12	0	0	0	0	531	541	
13	0	0	0	0	564	541	
14	0	0	0	0	635	541	
15	0	0	0	0	620	541	
0	0	0	0	0	783	541	
1	0	0	0	0	832	541	
2	0	0	0	0	851	541	
3	0	0	0	0	911	541	
4	0	0	0	0	861	542	
5	0	0	0	0	849	542	
6	0	0	0	0	841	542	
7	0	0	0	0	872	542	
8	0	0	0	0	765	542	
9	0	0	0	0	760	542	
10	0	0	0	0	864	542	
11	0	0	0	0	862	542	
12	0	0	0	0	897	542	
13	0	0	0	0	941	542	
14	0	0	0	0	610	542	
15	0	0	0	0	456	542	
0	0	0	0	0	443	542	
1	0	0	0	0	414	542	
2	0	0	0	0	438	542	
3	0	0	0	0	560	542	
4	0	0	0	0	624	542	
5	0	0	0	0	820	542	
6	0	0	0	0	793	542	
7	0	0	0	0	872	542	
8	0	0	0	0	798	542	
9	0	0	0	0	736	542	
10	0	0	0	0	782	542	
11	0	0	0	0	793	542	
12	0	0	0	0	906	542	
13	0	0	0	0	1022	543	
14	0	0	0	0	1022	543	
15	0	0	0	0	1022	543	
0	0	0	0	0	1022	543	
1	0	0	0	0	1022	543	
2	0	0	0	0	1022	543	
3	0	0	0	0	1022	543	
4	0	0	0	0	1022	543	
5	0	0	0	0	767	543	
6	0	0	0	0	662	543	
7	0	0	0	0	809	543	
8	0	0	0	0	586	544	
9	0	0	0	0	577	544	
10	0	0	0	0	361	544	
11	0	0	0	0	472	544	
12	0	0	0	0	59	544	
13	0	0	0	0	0	544	
14	0	0	0	0	0	544	
15	0	0	0	0	0	544	
0	0	0	0	0	0	544	
1	0	0	0	0	0	545	
2	0	0	0	0	0	545	
3	0	0	0	0	0	545	
4	0	0	0	0	0	545	
5	0	0	0	0	0	545	
6	0	0	0	0	0	545	
7	0	0	0	0	0	545	
8	0	0	0	0	31	545	
9	0	0	0	0	115	545	
10	0	0	0	0	446	545	
11	0	0	0	0	380	545	
12	0	0	0	0	67	545	
13	0	0	0	0	250	545	
14	0	0	0	0	522	545	
15	0	0	0	0	482	545	
0	0	0	0	0	431	546	
1	0	0	0	0	283	545	
2	0	0	0	0	243	546	
3	0	0	0	0	52	546	
4	0	0	0	0	0	546	
5	0	0	0	0	0	546	
6	0	0	0	0	0	546	
7	0	0	0	0	0	547	
8	0	0	0	0	31	547	
9	0	0	0	0	214	547	
10	0	0	0	0	55	547	
11	0	0	0	0	0	547	
12	0	0	0	0	0	547	
13	0	0	0	0	0	547	
14	0	0	0	0	0	547	
15	0	0	0	0	0	547	
0	0	0	0	0	0	547	
1	0	0	0	0	0	547	
2	0	0	0	0	0	547	
3	0	0	0	0	0	547	
4	0	0	0	0	0	547	
5	0	0	0	0	299	547	
6	0	0	0	0	284	547	
7	0	0	0	0	441	547	
8	0	0	0	0	590	547	
9	0	0	0	0	825	548	
10	0	0	0	0	698	547	
11	0	0	0	0	692	548	
12	0	0	0	0	1020	548	
13	0	0	0	0	988	548	
14	0	0	0	0	1022	548	
15	0	0	0	0	980	548	
0	0	0	0	0	948	548	
1	0	0	0	0	1022	548	
2	0	0	0	0	986	548	
3	0	0	0	0	1022	548	
4	0	0	0	0	1022	548	
5	0	0	0	0	1022	548	
6	0	0	0	0	1022	548	
7	0	0	0	0	1023	548	
8	0	0	0	0	1022	548	
9	0	0	0	0	1022	548	
10	0	0	0	0	1022	548	
11	0	0	0	0	1023	549	
12	0	0	0	0	1022	549	
13	0	0	0	0	1022	549	
14	0	0	0	0	1022	549	
15	0	0	0	0	999	549	
0	0	0	0	0	1013	549	
1	0	0	0	0	1022	549	
2	0	0	0	0	847	549	
3	0	0	0	0	471	549	
4	0	0	0	0	411	549	
5	0	0	0	0	467	549	
6	0	0	0	0	448	549	
7	0	0	0	0	353	550	
8	0	0	0	0	333	549	
9	0	0	0	0	283	550	
10	0	0	0	0	284	550	
11	0	0	0	0	355	550	
12	0	0	0	0	356	550	
13	0	0	0	0	354	550	
14	0	0	0	0	304	550	
15	0	0	0	0	120	550	
0	0	0	0	0	135	550	
1	0	0	0	0	84	550	
2	0	0	0	0	4	550	
3	0	0	0	0	0	550	
4	0	0	0	0	0	550	
5	0	0	0	0	0	550	
6	0	0	0	0	0	550	
7	0	0	0	0	0	550	
8	0	0	0	0	0	550	
9	0	0	0	0	0	550	
10	0	0	0	0	0	550	
11	0	0	0	0	0	551	
12	0	0	0	0	0	551	
13	0	0	0	0	0	551	
14	0	0	0	0	111	551	
15	0	0	0	0	219	551	
0	0	0	0	0	335	551	
1	0	0	0	0	398	551	
2	0	0	0	0	515	551	
3	0	0	0	0	600	551	
4	0	0	0	0	633	551	
5	0	0	0	0	736	551	
6	0	0	0	0	721	551	
7	0	0	0	0	724	551	
8	0	0	0	0	820	551	
9	0	0	0	0	754	551	
10	0	0	0	0	882	552	
11	0	0	0	0	902	551	
12	0	0	0	0	1022	552	
13	0	0	0	0	1022	552	
14	0	0	0	0	1022	552	
15	0	0	0	0	1022	552	
0	0	0	0	0	1022	552	
1	0	0	0	0	1022	552	
2	0	0	0	0	1022	552	
3	0	0	0	0	1022	552	
4	0	0	0	0	1022	552	
5	0	0	0	0	1022	552	
6	0	0	0	0	1022	552	
7	0	0	0	0	1022	552	
8	0	0	0	0	1022	552	
9	0	0	0	0	1020	552	
10	0	0	0	0	1022	552	
11	0	0	0	0	1022	552	
12	0	0	0	0	1022	552	
13	0	0	0	0	1022	552	
14	0	0	0	0	1022	552	
15	0	0	0	0	1022	552	
0	0	0	0	0	1022	552	
1	0	0	0	0	1022	552	
2	0	0	0	0	1022	552	
3	0	0	0	0	1022	552	
4	0	0	0	0	1022	552	
5	0	0	0	0	1022	553	
6	0	0	0	0	1022	553	
7	0	0	0	0	1022	552	
8	0	0	0	0	979	553	
9	0	0	0	0	935	553	
10	0	0	0	0	641	553	
11	0	0	0	0	627	553	
12	0	0	0	0	454	553	
13	0	0	0	0	356	553	
14	0	0	0	0	404	553	
15	0	0	0	0	213	553	
0	0	0	0	0	220	553	
1	0	0	0	0	282	553	
2	0	0	0	0	382	553	
3	0	0	0	0	320	553	
4	0	0	0	0	306	553	
5	0	0	0	0	358	553	
6	0	0	0	0	358	553	
7	0	0	0	0	428	553	
8	0	0	0	0	352	553	
9	0	0	0	0	255	553	
10	0	0	0	0	355	552	
11	0	0	0	0	392	552	
12	0	0	0	0	519	553	
13	0	0	0	0	591	552	
14	0	0	0	0	671	553	
15	0	0	0	0	585	552	
0	0	0	0	0	533	552	
1	0	0	0	0	424	552	
2	0	0	0	0	336	552	
3	0	0	0	0	415	552	
4	0	0	0	0	279	552	
5	0	0	0	0	340	552	
6	0	0	0	0	316	552	
7	0	0	0	0	191	552	
8	0	0	0	0	121	552	
9	0	0	0	0	126	551	
10	0	0	0	0	184	551	
11	0	0	0	0	198	552	
12	0	0	0	0	318	551	
13	0	0	0	0	333	552	
14	0	0	0	0	281	552	
15	0	0	0	0	360	552	
0	0	0	0	0	309	552	
1	0	0	0	0	330	552	
2	0	0	0	0	294	552	
3	0	0	0	0	411	552	
4	0	0	0	0	356	552	
5	0	0	0	0	376	552	
6	0	0	0	0	480	553	
7	0	0	0	0	459	553	
8	0	0	0	0	516	553	
9	0	0	0	0	501	553	
10	0	0	0	0	429	553	
11	0	0	0	0	420	553	
12	0	0	0	0	335	553	
13	0	0	0	0	353	553	
14	0	0	0	0	337	553	
15	0	0	0	0	424	553	
0	0	0	0	0	362	553	
1	0	0	0	0	500	553	
2	0	0	0	0	243	553	
3	0	0	0	0	364	554	
4	0	0	0	0	302	554	
5	0	0	0	0	355	553	
6	0	0	0	0	333	554	
7	0	0	0	0	322	554	
8	0	0	0	0	356	554	
9	0	0	0	0	335	554	
10	0	0	0	0	375	554	
11	0	0	0	0	358	554	
12	0	0	0	0	413	554	
13	0	0	0	0	268	554	
14	0	0	0	0	348	554	
15	0	0	0	0	392	554	
0	0	0	0	0	389	554	
1	0	0	0	0	403	554	
2	0	0	0	0	424	553	
3	0	0	0	0	310	554	
4	0	0	0	0	399	554	
5	0	0	0	0	374	554	
6	0	0	0	0	385	554	
7	0	0	0	0	445	554	
8	0	0	0	0	460	554	
9	0	0	0	0	376	554	
10	0	0	0	0	457	554	
11	0	0	0	0	412	554	
12	0	0	0	0	371	554	
13	0	0	0	0	443	554	
14	0	0	0	0	425	554	
15	0	0	0	0	478	554	
0	0	0	0	0	459	554	
1	0	0	0	0	446	554	
2	0	0	0	0	491	554	
3	0	0	0	0	525	554	
4	0	0	0	0	713	554	
5	0	0	0	0	676	554	
6	0	0	0	0	566	554	
7	0	0	0	0	471	554	
8	0	0	0	0	379	554	
9	0	0	0	0	416	554	
10	0	0	0	0	369	554	
11	0	0	0	0	347	554	
12	0	0	0	0	321	554	
13	0	0	0	0	421	554	
14	0	0	0	0	309	554	
15	0	0	0	0	441	553	
0	0	0	0	0	433	553	
1	0	0	0	0	448	554	
2	0	0	0	0	434	553	
3	0	0	0	0	444	554	
4	0	0	0	0	431	553	
5	0	0	0	0	405	554	
6	0	0	0	0	458	554	
7	0	0	0	0	519	554	
8	0	0	0	0	503	554	
9	0	0	0	0	499	554	
10	0	0	0	0	536	554	
11	0	0	0	0	439	554	
12	0	0	0	0	433	554	
13	0	0	0	0	417	554	
14	0	0	0	0	411	554	
15	0	0	0	0	462	554	
0	0	0	0	0	483	554	
1	0	0	0	0	455	554	
2	0	0	0	0	443	554	
3	0	0	0	0	420	554	
4	0	0	0	0	387	554	
5	0	0	0	0	400	554	
6	0	0	0	0	414	554	
7	0	0	0	0	435	554	
8	0	0	0	0	447	554	
9	0	0	0	0	445	554	
10	0	0	0	0	492	554	
11	0	0	0	0	516	554	
12	0	0	0	0	551	555	
13	0	0	0	0	493	554	
14	0	0	0	0	516	554	
15	0	0	0	0	485	555	
0	0	0	0	0	589	555	
1	0	0	0	0	561	555	
2	0	0	0	0	571	555	
3	0	0	0	0	511	555	
4	0	0	0	0	556	555	
5	0	0	0	0	543	555	
6	0	0	0	0	595	556	
7	0	0	0	0	573	556	
8	0	0	0	0	667	556	
9	0	0	0	0	641	556	
10	0	0	0	0	614	556	
11	0	0	0	0	632	556	
12	0	0	0	0	652	556	
13	0	0	0	0	732	556	
14	0	0	0	0	632	556	
15	0	0	0	0	617	556	
0	0	0	0	0	608	556	
1	0	0	0	0	624	556	
2	0	0	0	0	544	556	
3	0	0	0	0	589	556	
4	0	0	0	0	631	556	
5	0	0	0	0	624	556	
6	0	0	0	0	615	556	
7	0	0	0	0	635	556	
8	0	0	0	0	611	556	
9	0	0	0	0	559	556	
10	0	0	0	0	587	556	
11	0	0	0	0	591	556	
12	0	0	0	0	568	556	
13	0	0	0	0	595	557	
14	0	0	0	0	558	556	
15	0	0	0	0	537	557	
0	0	0	0	0	590	556	
1	0	0	0	0	500	557	
2	0	0	0	0	481	557	
3	0	0	0	0	536	556	
4	0	0	0	0	496	557	
5	0	0	0	0	510	557	
6	0	0	0	0	502	557	
7	0	0	0	0	498	557	
8	0	0	0	0	494	556	
9	0	0	0	0	511	556	
10	0	0	0	0	512	556	
11	0	0	0	0	549	556	
12	0	0	0	0	579	557	
13	0	0	0	0	535	556	
14	0	0	0	0	599	557	
15	0	0	0	0	550	557	
0	0	0	0	0	538	557	
1	0	0	0	0	517	557	
2	0	0	0	0	550	557	
3	0	0	0	0	552	557	
4	0	0	0	0	577	558	
5	0	0	0	0	577	558	
6	0	0	0	0	626	558	
7	0	0	0	0	564	558	
8	0	0	0	0	675	558	
9	0	0	0	0	677	558	
10	0	0	0	0	565	558	
11	0	0	0	0	508	558	
12	0	0	0	0	534	558	
13	0	0	0	0	499	558	
14	0	0	0	0	564	558	
15	0	0	0	0	442	558	
0	0	0	0	0	487	558	
1	0	0	0	0	511	558	
2	0	0	0	0	495	558	
3	0	0	0	0	536	558	
4	0	0	0	0	568	558	
5	0	0	0	0	500	557	
6	0	0	0	0	532	557	
7	0	0	0	0	517	558	
8	0	0	0	0	537	557	
9	0	0	0	0	520	557	
10	0	0	0	0	514	557	
11	0	0	0	0	507	556	
12	0	0	0	0	521	557	
13	0	0	0	0	530	556	
14	0	0	0	0	535	556	
15	0	0	0	0	524	556	
0	0	0	0	0	492	556	
1	0	0	0	0	519	556	
2	0	0	0	0	489	556	
3	0	0	0	0	534	556	
4	0	0	0	0	505	556	
5	0	0	0	0	509	556	
6	0	0	0	0	528	556	
7	0	0	0	0	512	556	
8	0	0	0	0	483	556	
9	0	0	0	0	470	556	
10	0	0	0	0	482	556	
11	0	0	0	0	468	556	
12	0	0	0	0	465	557	
13	0	0	0	0	511	557	
14	0	0	0	0	488	558	
15	0	0	0	0	487	558	
0	0	0	0	0	518	558	
1	0	0	0	0	526	558	
2	0	0	0	0	550	558	
3	0	0	0	0	501	558	
4	0	0	0	0	525	558	
5	0	0	0	0	520	558	
6	0	0	0	0	486	558	
7	0	0	0	0	524	558	
8	0	0	0	0	544	558	
9	0	0	0	0	501	558	
10	0	0	0	0	473	558	
11	0	0	0	0	498	558	
12	0	0	0	0	497	558	
13	0	0	0	0	525	558	
14	0	0	0	0	492	558	
15	0	0	0	0	514	558	
0	0	0	0	0	515	558	
1	0	0	0	0	473	558	
2	0	0	0	0	562	559	
3	0	0	0	0	492	558	
4	0	0	0	0	491	558	
5	0	0	0	0	486	558	
6	0	0	0	0	502	558	
7	0	0	0	0	503	559	
8	0	0	0	0	536	558	
9	0	0	0	0	533	558	
10	0	0	0	0	488	559	
11	0	0	0	0	450	558	
12	0	0	0	0	516	559	
13	0	0	0	0	522	559	
14	0	0	0	0	496	559	
15	0	0	0	0	503	559	
0	0	0	0	0	525	559	
1	0	0	0	0	519	559	
2	0	0	0	0	532	558	
3	0	0	0	0	523	559	
4	0	0	0	0	523	559	
5	0	0	0	0	492	559	
6	0	0	0	0	537	559	
7	0	0	0	0	539	559	
8	0	0	0	0	505	560	
9	0	0	0	0	491	560	
10	0	0	0	0	509	560	
11	0	0	0	0	487	560	
12	0	0	0	0	495	560	
13	0	0	0	0	475	560	
14	0	0	0	0	486	560	
15	0	0	0	0	499	560	
0	0	0	0	0	489	560	
1	0	0	0	0	486	560	
2	0	0	0	0	492	560	
3	0	0	0	0	503	560	
4	0	0	0	0	495	560	
5	0	0	0	0	493	560	
6	0	0	0	0	579	560	
7	0	0	0	0	686	560	
8	0	0	0	0	660	560	
9	0	0	0	0	494	560	
10	0	0	0	0	502	560	
11	0	0	0	0	476	560	
12	0	0	0	0	481	560	
13	0	0	0	0	488	560	
14	0	0	0	0	488	560	
15	0	0	0	0	488	560	
0	0	0	0	0	505	560	
1	0	0	0	0	486	560	
2	0	0	0	0	484	560	
3	0	0	0	0	516	560	
4	0	0	0	0	549	560	
5	0	0	0	0	510	560	
6	0	0	0	0	505	560	
7	0	0	0	0	531	560	
8	0	0	0	0	479	560	
9	0	0	0	0	519	560	
10	0	0	0	0	521	559	
11	0	0	0	0	524	559	
12	0	0	0	0	503	559	
13	0	0	0	0	512	559	
14	0	0	0	0	541	560	
15	0	0	0	0	519	559	
0	0	0	0	0	554	560	
1	0	0	0	0	517	559	
2	0	0	0	0	541	559	
3	0	0	0	0	524	559	
4	0	0	0	0	521	559	
5	0	0	0	0	511	559	
6	0	0	0	0	471	559	
7	0	0	0	0	503	559	
8	0	0	0	0	490	559	
9	0	0	0	0	477	559	
10	0	0	0	0	483	559	
11	0	0	0	0	478	559	
12	0	0	0	0	471	559	
13	0	0	0	0	506	559	
14	0	0	0	0	484	559	
15	0	0	0	0	527	559	
0	0	0	0	0	535	559	
1	0	0	0	0	507	559	
2	0	0	0	0	489	559	
3	0	0	0	0	537	559	
4	0	0	0	0	531	559	
5	0	0	0	0	462	559	
6	0	0	0	0	491	559	
7	0	0	0	0	515	560	
8	0	0	0	0	516	559	
9	0	0	0	0	505	560	
10	0	0	0	0	531	560	
11	0	0	0	0	489	560	
12	0	0	0	0	489	560	
13	0	0	0	0	451	559	
14	0	0	0	0	561	560	
15	0	0	0	0	463	560	
0	0	0	0	0	492	560	
1	0	0	0	0	504	560	
2	0	0	0	0	494	559	
3	0	0	0	0	505	560	
4	0	0	0	0	507	559	
5	0	0	0	0	482	559	
6	0	0	0	0	526	559	
7	0	0	0	0	503	559	
8	0	0	0	0	517	559	
9	0	0	0	0	500	559	
10	0	0	0	0	515	559	
11	0	0	0	0	558	559	
12	0	0	0	0	447	559	
13	0	0	0	0	531	559	
14	0	0	0	0	508	559	
15	0	0	0	0	561	559	
0	0	0	0	0	541	559	
1	0	0	0	0	543	559	
2	0	0	0	0	504	559	
3	0	0	0	0	542	559	
4	0	0	0	0	536	559	
5	0	0	0	0	530	559	
6	0	0	0	0	545	559	
7	0	0	0	0	556	559	
8	0	0	0	0	579	559	
9	0	0	0	0	567	559	
10	0	0	0	0	527	559	
11	0	0	0	0	541	559	
12	0	0	0	0	527	559	
13	0	0	0	0	607	559	
14	0	0	0	0	472	559	
15	0	0	0	0	475	559	
0	0	0	0	0	468	559	
1	0	0	0	0	526	559	
2	0	0	0	0	491	559	
3	0	0	0	0	508	559	
4	0	0	0	0	468	559	
5	0	0	0	0	487	559	
6	0	0	0	0	508	559	
7	0	0	0	0	489	559	
8	0	0	0	0	433	559	
9	0	0	0	0	468	559	
10	0	0	0	0	641	559	
11	0	0	0	0	687	559	
12	0	0	0	0	608	559	
13	0	0	0	0	491	558	
14	0	0	0	0	448	558	
15	0	0	0	0	470	558	
0	0	0	0	0	428	558	
1	0	0	0	0	473	558	
2	0	0	0	0	454	558	
3	0	0	0	0	460	558	
4	0	0	0	0	474	558	
5	0	0	0	0	504	558	
6	0	0	0	0	514	558	
7	0	0	0	0	476	558	
8	0	0	0	0	551	558	
9	0	0	0	0	442	558	
10	0	0	0	0	436	558	
11	0	0	0	0	499	558	
12	0	0	0	0	472	558	
13	0	0	0	0	495	558	
14	0	0	0	0	538	558	
15	0	0	0	0	486	558	
0	0	0	0	0	522	558	
1	0	0	0	0	515	558	
2	0	0	0	0	530	558	
3	0	0	0	0	540	558	
4	0	0	0	0	509	558	
5	0	0	0	0	536	558	
6	0	0	0	0	479	558	
7	0	0	0	0	510	558	
8	0	0	0	0	508	558	
9	0	0	0	0	490	558	
10	0	0	0	0	488	558	
11	0	0	0	0	504	557	
12	0	0	0	0	483	558	
13	0	0	0	0	448	557	
14	0	0	0	0	520	557	
15	0	0	0	0	484	557	
0	0	0	0	0	516	557	
1	0	0	0	0	495	557	
2	0	0	0	0	457	557	
3	0	0	0	0	529	557	
4	0	0	0	0	532	557	
5	0	0	0	0	522	558	
6	0	0	0	0	495	558	
7	0	0	0	0	540	558	
8	0	0	0	0	497	558	
9	0	0	0	0	496	558	
10	0	0	0	0	489	558	
11	0	0	0	0	492	558	
12	0	0	0	0	512	558	
13	0	0	0	0	523	558	
14	0	0	0	0	509	558	
15	0	0	0	0	568	558	
0	0	0	0	0	476	558	
1	0	0	0	0	472	558	
2	0	0	0	0	526	558	
3	0	0	0	0	542	558	
4	0	0	0	0	540	558	
5	0	0	0	0	525	558	
6	0	0	0	0	529	558	
7	0	0	0	0	515	558	
8	0	0	0	0	615	558	
9	0	0	0	0	531	558	
10	0	0	0	0	532	558	
11	0	0	0	0	530	558	
12	0	0	0	0	571	558	
13	0	0	0	0	553	558	
14	0	0	0	0	550	558	
15	0	0	0	0	519	558	
0	0	0	0	0	495	558	
1	0	0	0	0	507	558	
2	0	0	0	0	469	558	
3	0	0	0	0	499	558	
4	0	0	0	0	479	557	
5	0	0	0	0	480	557	
6	0	0	0	0	460	557	
7	0	0	0	0	476	556	
8	0	0	0	0	548	556	
9	0	0	0	0	514	556	
10	0	0	0	0	528	555	
11	0	0	0	0	543	555	
12	0	0	0	0	531	554	
13	0	0	0	0	571	554	
14	0	0	0	0	527	554	
15	0	0	0	0	545	553	
0	0	0	0	0	505	553	
1	0	0	0	0	517	553	
2	0	0	0	0	470	553	
3	0	0	0	0	497	553	
4	0	0	0	0	468	553	
5	0	0	0	0	460	553	
6	0	0	0	0	473	553	
7	0	0	0	0	461	553	
8	0	0	0	0	503	553	
9	0	0	0	0	499	553	
10	0	0	0	0	505	552	
11	0	0	0	0	527	552	
12	0	0	0	0	605	552	
13	0	0	0	0	689	553	
14	0	0	0	0	494	552	
15	0	0	0	0	436	552	
0	0	0	0	0	472	552	
1	0	0	0	0	457	552	
2	0	0	0	0	438	553	
3	0	0	0	0	498	553	
4	0	0	0	0	462	553	
5	0	0	0	0	449	554	
6	0	0	0	0	465	554	
7	0	0	0	0	487	554	
8	0	0	0	0	526	555	
9	0	0	0	0	489	555	
10	0	0	0	0	534	555	
11	0	0	0	0	508	556	
12	0	0	0	0	507	556	
13	0	0	0	0	551	556	
14	0	0	0	0	527	556	
15	0	0	0	0	531	556	
0	0	0	0	0	570	556	
1	0	0	0	0	563	557	
2	0	0	0	0	571	556	
3	0	0	0	0	560	557	
4	0	0	0	0	570	557	
5	0	0	0	0	538	556	
6	0	0	0	0	566	557	
7	0	0	0	0	561	556	
8	0	0	0	0	561	556	
9	0	0	0	0	551	556	
10	0	0	0	0	495	556	
11	0	0	0	0	522	556	
12	0	0	0	0	498	556	
13	0	0	0	0	461	556	
14	0	0	0	0	474	556	
15	0	0	0	0	432	556	
0	0	0	0	0	478	556	
1	0	0	0	0	489	556	
2	0	0	0	0	461	556	
3	0	0	0	0	490	556	
4	0	0	0	0	494	556	
5	0	0	0	0	487	556	
6	0	0	0	0	498	556	
7	0	0	0	0	498	556	
8	0	0	0	0	496	556	
9	0	0	0	0	478	556	
10	0	0	0	0	506	556	
11	0	0	0	0	508	556	
12	0	0	0	0	541	556	
13	0	0	0	0	499	556	
14	0	0	0	0	515	556	
15	0	0	0	0	543	556	
0	0	0	0	0	502	556	
1	0	0	0	0	508	556	
2	0	0	0	0	534	556	
3	0	0	0	0	504	556	
4	0	0	0	0	548	556	
5	0	0	0	0	519	556	
6	0	0	0	0	481	556	
7	0	0	0	0	474	556	
8	0	0	0	0	514	556	
9	0	0	0	0	521	556	
10	0	0	0	0	516	556	
11	0	0	0	0	526	556	
12	0	0	0	0	477	556	
13	0	0	0	0	495	556	
14	0	0	0	0	516	556	
15	0	0	0	0	470	556	
0	0	0	0	0	510	557	
1	0	0	0	0	496	557	
2	0	0	0	0	488	557	
3	0	0	0	0	533	557	
4	0	0	0	0	518	557	
5	0	0	0	0	535	557	
6	0	0	0	0	539	557	
7	0	0	0	0	532	557	
8	0	0	0	0	543	557	
9	0	0	0	0	453	557	
10	0	0	0	0	510	557	
11	0	0	0	0	519	557	
12	0	0	0	0	522	557	
13	0	0	0	0	534	557	
14	0	0	0	0	521	557	
15	0	0	0	0	496	557	
0	0	0	0	0	498	557	
1	0	0	0	0	504	557	
2	0	0	0	0	500	557	
3	0	0	0	0	531	556	
4	0	0	0	0	447	556	
5	0	0	0	0	537	556	
6	0	0	0	0	463	556	
7	0	0	0	0	532	556	
8	0	0	0	0	666	556	
9	0	0	0	0	705	556	
10	0	0	0	0	665	556	
11	0	0	0	0	497	556	
12	0	0	0	0	481	556	
13	0	0	0	0	477	556	
14	0	0	0	0	500	556	
15	0	0	0	0	516	556	
0	0	0	0	0	473	556	
1	0	0	0	0	383	556	
2	0	0	0	0	575	556	
3	0	0	0	0	441	556	
4	0	0	0	0	467	556	
5	0	0	0	0	500	556	
6	0	0	0	0	521	556	
7	0	0	0	0	494	556	
8	0	0	0	0	490	556	
9	0	0	0	0	477	556	
10	0	0	0	0	488	556	
11	0	0	0	0	505	556	
12	0	0	0	0	541	556	
13	0	0	0	0	502	556	
14	0	0	0	0	579	556	
15	0	0	0	0	497	556	
0	0	0	0	0	559	556	
1	0	0	0	0	482	556	
2	0	0	0	0	493	556	
3	0	0	0	0	551	556	
4	0	0	0	0	497	556	
5	0	0	0	0	472	556	
6	0	0	0	0	515	556	
7	0	0	0	0	491	556	
8	0	0	0	0	459	556	
9	0	0	0	0	526	557	
10	0	0	0	0	475	557	
11	0	0	0	0	473	556	
12	0	0	0	0	459	557	
13	0	0	0	0	444	556	
14	0	0	0	0	511	556	
15	0	0	0	0	489	556	
0	0	0	0	0	500	556	
1	0	0	0	0	457	556	
2	0	0	0	0	506	556	
3	0	0	0	0	458	556	
4	0	0	0	0	658	556	
5	0	0	0	0	380	556	
6	0	0	0	0	472	556	
7	0	0	0	0	492	556	
8	0	0	0	0	466	556	
9	0	0	0	0	508	556	
10	0	0	0	0	485	556	
11	0	0	0	0	504	556	
12	0	0	0	0	512	556	
13	0	0	0	0	483	556	
14	0	0	0	0	534	556	
15	0	0	0	0	562	556	
0	0	0	0	0	527	556	
1	0	0	0	0	535	556	
2	0	0	0	0	529	556	
3	0	0	0	0	486	556	
4	0	0	0	0	560	556	
5	0	0	0	0	471	556	
6	0	0	0	0	529	555	
7	0	0	0	0	539	556	
8	0	0	0	0	514	556	
9	0	0	0	0	527	556	
10	0	0	0	0	483	556	
11	0	0	0	0	536	556	
12	0	0	0	0	511	556	
13	0	0	0	0	528	556	
14	0	0	0	0	563	555	
15	0	0	0	0	506	555	
0	0	0	0	0	520	555	
1	0	0	0	0	562	555	
2	0	0	0	0	593	555	
3	0	0	0	0	527	555	
4	0	0	0	0	500	555	
5	0	0	0	0	496	556	
6	0	0	0	0	498	556	
7	0	0	0	0	490	556	
8	0	0	0	0	560	556	
9	0	0	0	0	470	556	
10	0	0	0	0	606	556	
11	0	0	0	0	474	556	
12	0	0	0	0	547	556	
13	0	0	0	0	446	556	
14	0	0	0	0	496	556	
15	0	0	0	0	494	556	
0	0	0	0	0	512	556	
1	0	0	0	0	489	556	
2	0	0	0	0	484	556	
3	0	0	0	0	633	556	
4	0	0	0	0	656	556	
5	0	0	0	0	641	556	
6	0	0	0	0	502	555	
7	0	0	0	0	449	555	
8	0	0	0	0	491	555	
9	0	0	0	0	430	555	
10	0	0	0	0	536	555	
11	0	0	0	0	497	554	
12	0	0	0	0	472	554	
13	0	0	0	0	426	554	
14	0	0	0	0	479	555	
15	0	0	0	0	469	554	
0	0	0	0	0	520	555	
1	0	0	0	0	526	555	
2	0	0	0	0	490	555	
3	0	0	0	0	527	555	
4	0	0	0	0	532	556	
5	0	0	0	0	538	556	
6	0	0	0	0	513	556	
7	0	0	0	0	508	556	
8	0	0	0	0	599	556	
9	0	0	0	0	543	556	
10	0	0	0	0	473	556	
11	0	0	0	0	536	556	
12	0	0	0	0	494	556	
13	0	0	0	0	543	557	
14	0	0	0	0	569	556	
15	0	0	0	0	519	557	
0	0	0	0	0	572	556	
1	0	0	0	0	510	556	
2	0	0	0	0	558	556	
3	0	0	0	0	464	556	
4	0	0	0	0	552	556	
5	0	0	0	0	480	555	
6	0	0	0	0	435	556	
7	0	0	0	0	481	556	
8	0	0	0	0	479	556	
9	0	0	0	0	524	556	
10	0	0	0	0	491	556	
11	0	0	0	0	527	556	
12	0	0	0	0	523	556	
13	0	0	0	0	535	556	
14	0	0	0	0	513	556	
15	0	0	0	0	537	556	
0	0	0	0	0	532	556	
1	0	0	0	0	561	556	
2	0	0	0	0	461	556	
3	0	0	0	0	552	556	
4	0	0	0	0	459	556	
5	0	0	0	0	453	556	
6	0	0	0	0	491	556	
7	0	0	0	0	496	556	
8	0	0	0	0	495	556	
9	0	0	0	0	491	556	
10	0	0	0	0	485	556	
11	0	0	0	0	492	556	
12	0	0	0	0	511	556	
13	0	0	0	0	516	556	
14	0	0	0	0	500	556	
15	0	0	0	0	488	556	
0	0	0	0	0	500	556	
1	0	0	0	0	506	556	
2	0	0	0	0	512	556	
3	0	0	0	0	520	555	
4	0	0	0	0	538	556	
5	0	0	0	0	541	556	
6	0	0	0	0	571	556	
7	0	0	0	0	483	556	
8	0	0	0	0	537	556	
9	0	0	0	0	586	556	
10	0	0	0	0	456	556	
11	0	0	0	0	471	556	
12	0	0	0	0	511	556	
13	0	0	0	0	463	556	
14	0	0	0	0	463	557	
15	0	0	0	0	516	557	
0	0	0	0	0	457	557	
1	0	0	0	0	507	558	
2	0	0	0	0	559	558	
3	0	0	0	0	521	558	
4	0	0	0	0	549	558	
5	0	0	0	0	451	558	
6	0	0	0	0	498	558	
7	0	0	0	0	516	558	
8	0	0	0	0	526	558	
9	0	0	0	0	631	558	
10	0	0	0	0	655	558	
11	0	0	0	0	591	557	
12	0	0	0	0	495	557	
13	0	0	0	0	491	557	
14	0	0	0	0	502	557	
15	0	0	0	0	486	557	
0	0	0	0	0	518	557	
1	0	0	0	0	514	556	
2	0	0	0	0	494	556	
3	0	0	0	0	532	556	
4	0	0	0	0	475	556	
5	0	0	0	0	527	556	
6	0	0	0	0	521	556	
7	0	0	0	0	433	556	
8	0	0	0	0	471	556	
9	0	0	0	0	544	556	
10	0	0	0	0	412	556	
11	0	0	0	0	468	556	
12	0	0	0	0	521	556	
13	0	0	0	0	508	556	
14	0	0	0	0	525	556	
15	0	0	0	0	550	556	
0	0	0	0	0	561	556	
1	0	0	0	0	606	556	
2	0	0	0	0	557	556	
3	0	0	0	0	569	556	
4	0	0	0	0	538	556	
5	0	0	0	0	552	556	
6	0	0	0	0	505	556	
7	0	0	0	0	473	556	
8	0	0	0	0	503	556	
9	0	0	0	0	505	556	
10	0	0	0	0	462	556	
11	0	0	0	0	466	556	
12	0	0	0	0	428	557	
13	0	0	0	0	443	557	
14	0	0	0	0	517	557	
15	0	0	0	0	499	557	
0	0	0	0	0	469	558	
1	0	0	0	0	518	557	
2	0	0	0	0	515	557	
3	0	0	0	0	556	557	
4	0	0	0	0	559	557	
5	0	0	0	0	617	557	
6	0	0	0	0	532	556	
7	0	0	0	0	530	556	
8	0	0	0	0	460	556	
9	0	0	0	0	539	556	
10	0	0	0	0	462	556	
11	0	0	0	0	446	556	
12	0	0	0	0	414	556	
13	0	0	0	0	496	556	
14	0	0	0	0	467	556	
15	0	0	0	0	479	556	
0	0	0	0	0	522	556	
1	0	0	0	0	490	556	
2	0	0	0	0	547	556	
3	0	0	0	0	515	556	
4	0	0	0	0	507	556	
5	0	0	0	0	524	556	
6	0	0	0	0	495	556	
7	0	0	0	0	537	556	
8	0	0	0	0	534	556	
9	0	0	0	0	548	556	
10	0	0	0	0	525	556	
11	0	0	0	0	496	556	
12	0	0	0	0	518	556	
13	0	0	0	0	518	556	
14	0	0	0	0	446	556	
15	0	0	0	0	508	557	
0	0	0	0	0	497	556	
1	0	0	0	0	436	557	
2	0	0	0	0	505	556	
3	0	0	0	0	424	557	
4	0	0	0	0	481	556	
5	0	0	0	0	477	556	
6	0	0	0	0	537	557	
7	0	0	0	0	528	557	
8	0	0	0	0	499	557	
9	0	0	0	0	495	557	
10	0	0	0	0	653	557	
11	0	0	0	0	772	557	
12	0	0	0	0	679	557	
13	0	0	0	0	479	557	
14	0	0	0	0	472	557	
15	0	0	0	0	460	558	
0	0	0	0	0	477	558	
1	0	0	0	0	472	558	
2	0	0	0	0	495	558	
3	0	0	0	0	452	558	
4	0	0	0	0	478	558	
5	0	0	0	0	471	558	
6	0	0	0	0	467	558	
7	0	0	0	0	485	558	
8	0	0	0	0	503	558	
9	0	0	0	0	510	558	
10	0	0	0	0	539	558	
11	0	0	0	0	519	559	
12	0	0	0	0	541	559	
13	0	0	0	0	518	559	
14	0	0	0	0	539	559	
15	0	0	0	0	520	559	
0	0	0	0	0	542	558	
1	0	0	0	0	559	558	
2	0	0	0	0	568	558	
3	0	0	0	0	585	558	
4	0	0	0	0	546	558	
5	0	0	0	0	518	558	
6	0	0	0	0	602	558	
7	0	0	0	0	499	558	
8	0	0	0	0	573	558	
9	0	0	0	0	523	558	
10	0	0	0	0	433	558	
11	0	0	0	0	527	558	
12	0	0	0	0	390	558	
13	0	0	0	0	419	558	
14	0	0	0	0	521	558	
15	0	0	0	0	484	558	
0	0	0	0	0	477	558	
1	0	0	0	0	484	558	
2	0	0	0	0	495	558	
3	0	0	0	0	529	558	
4	0	0	0	0	543	558	
5	0	0	0	0	532	558	
6	0	0	0	0	545	558	
7	0	0	0	0	455	558	
8	0	0	0	0	555	558	
9	0	0	0	0	505	558	
10	0	0	0	0	486	558	
11	0	0	0	0	521	558	
12	0	0	0	0	468	558	
13	0	0	0	0	518	558	
14	0	0	0	0	495	557	
15	0	0	0	0	427	557	
0	0	0	0	0	572	557	
1	0	0	0	0	402	557	
2	0	0	0	0	371	557	
3	0	0	0	0	318	557	
4	0	0	0	0	225	557	
5	0	0	0	0	152	557	
6	0	0	0	0	101	557	
7	0	0	0	0	263	557	
8	0	0	0	0	296	556	
9	0	0	0	0	419	557	
10	0	0	0	0	545	557	
11	0	0	0	0	546	556	
12	0	0	0	0	697	557	
13	0	0	0	0	720	557	
14	0	0	0	0	708	556	
15	0	0	0	0	775	556	
0	0	0	0	0	833	556	
1	0	0	0	0	769	556	
2	0	0	0	0	920	556	
3	0	0	0	0	1022	556	
4	0	0	0	0	1022	556	
5	0	0	0	0	1022	556	
6	0	0	0	0	1022	556	
7	0	0	0	0	1022	555	
8	0	0	0	0	901	555	
9	0	0	0	0	829	555	
10	0	0	0	0	632	555	
11	0	0	0	0	548	555	
12	0	0	0	0	632	555	
13	0	0	0	0	442	555	
14	0	0	0	0	456	555	
15	0	0	0	0	435	555	
0	0	0	0	0	467	555	
1	0	0	0	0	512	554	
2	0	0	0	0	629	554	
3	0	0	0	0	444	554	
4	0	0	0	0	255	554	
5	0	0	0	0	342	554	
6	0	0	0	0	224	553	
7	0	0	0	0	210	553	
8	0	0	0	0	257	553	
9	0	0	0	0	221	552	
10	0	0	0	0	297	552	
11	0	0	0	0	219	552	
12	0	0	0	0	174	552	
13	0	0	0	0	248	551	
14	0	0	0	0	231	551	
15	0	0	0	0	252	551	
0	0	0	0	0	344	551	
1	0	0	0	0	310	551	
2	0	0	0	0	325	551	
3	0	0	0	0	359	551	
4	0	0	0	0	330	551	
5	0	0	0	0	353	551	
6	0	0	0	0	372	552	
7	0	0	0	0	487	552	
8	0	0	0	0	543	552	
9	0	0	0	0	619	553	
10	0	0	0	0	541	552	
11	0	0	0	0	620	553	
12	0	0	0	0	438	553	
13	0	0	0	0	351	553	
14	0	0	0	0	398	553	
15	0	0	0	0	463	553	
0	0	0	0	0	416	553	
1	0	0	0	0	394	553	
2	0	0	0	0	403	553	
3	0	0	0	0	439	553	
4	0	0	0	0	372	553	
5	0	0	0	0	348	553	
6	0	0	0	0	212	553	
7	0	0	0	0	323	553	
8	0	0	0	0	345	553	
9	0	0	0	0	348	552	
10	0	0	0	0	411	552	
11	0	0	0	0	462	552	
12	0	0	0	0	463	552	
13	0	0	0	0	535	552	
14	0	0	0	0	491	552	
15	0	0	0	0	436	552	
0	0	0	0	0	412	552	
1	0	0	0	0	351	552	
2	0	0	0	0	256	553	
3	0	0	0	0	116	553	
4	0	0	0	0	244	553	
5	0	0	0	0	337	554	
6	0	0	0	0	543	554	
7	0	0	0	0	558	555	
8	0	0	0	0	679	555	
9	0	0	0	0	798	555	
10	0	0	0	0	794	555	
11	0	0	0	0	700	555	
12	0	0	0	0	673	555	
13	0	0	0	0	666	555	
14	0	0	0	0	636	555	
15	0	0	0	0	705	555	
0	0	0	0	0	651	555	
1	0	0	0	0	670	555	
2	0	0	0	0	706	554	
3	0	0	0	0	585	554	
4	0	0	0	0	609	554	
5	0	0	0	0	496	553	
6	0	0	0	0	538	553	
7	0	0	0	0	584	553	
8	0	0	0	0	574	553	
9	0	0	0	0	507	553	
10	0	0	0	0	587	553	
11	0	0	0	0	559	553	
12	0	0	0	0	556	553	
13	0	0	0	0	616	553	
14	0	0	0	0	919	553	
15	0	0	0	0	1021	553	
0	0	0	0	0	691	553	
1	0	0	0	0	712	553	
2	0	0	0	0	691	554	
3	0	0	0	0	366	554	
4	0	0	0	0	749	554	
5	0	0	0	0	679	555	
6	0	0	0	0	641	555	
7	0	0	0	0	747	555	
8	0	0	0	0	550	555	
9	0	0	0	0	519	554	
10	0	0	0	0	419	554	
11	0	0	0	0	195	554	
12	0	0	0	0	287	555	
13	0	0	0	0	499	555	
14	0	0	0	0	555	555	
15	0	0	0	0	620	555	
0	0	0	0	0	555	555	
1	0	0	0	0	676	555	
2	0	0	0	0	626	555	
3	0	0	0	0	484	555	
4	0	0	0	0	423	555	
5	0	0	0	0	406	555	
6	0	0	0	0	463	555	
7	0	0	0	0	481	555	
8	0	0	0	0	527	555	
9	0	0	0	0	484	556	
10	0	0	0	0	475	556	
11	0	0	0	0	504	556	
12	0	0	0	0	499	556	
13	0	0	0	0	448	556	
14	0	0	0	0	465	556	
15	0	0	0	0	462	556	
0	0	0	0	0	376	556	
1	0	0	0	0	460	556	
2	0	0	0	0	273	556	
3	0	0	0	0	311	556	
4	0	0	0	0	44	556	
5	0	0	0	0	366	556	
6	0	0	0	0	425	556	
7	0	0	0	0	337	556	
8	0	0	0	0	622	556	
9	0	0	0	0	563	556	
10	0	0	0	0	608	556	
11	0	0	0	0	539	556	
12	0	0	0	0	487	556	
13	0	0	0	0	464	556	
14	0	0	0	0	413	556	
15	0	0	0	0	422	556	
0	0	0	0	0	420	556	
1	0	0	0	0	456	556	
2	0	0	0	0	463	556	
3	0	0	0	0	480	556	
4	0	0	0	0	540	556	
5	0	0	0	0	584	556	
6	0	0	0	0	531	556	
7	0	0	0	0	754	556	
8	0	0	0	0	714	556	
9	0	0	0	0	797	556	
10	0	0	0	0	821	557	
11	0	0	0	0	906	556	
12	0	0	0	0	936	557	
13	0	0	0	0	1022	556	
14	0	0	0	0	792	556	
15	0	0	0	0	571	557	
0	0	0	0	0	451	557	
1	0	0	0	0	308	557	
2	0	0	0	0	294	557	
3	0	0	0	0	249	557	
4	0	0	0	0	162	556	
5	0	0	0	0	113	556	
6	0	0	0	0	186	556	
7	0	0	0	0	169	556	
8	0	0	0	0	178	556	
9	0	0	0	0	190	556	
10	0	0	0	0	243	556	
11	0	0	0	0	387	556	
12	0	0	0	0	486	556	
13	0	0	0	0	496	556	
14	0	0	0	0	512	556	
15	0	0	0	0	448	555	
0	0	0	0	0	516	556	
1	0	0	0	0	559	556	
2	0	0	0	0	606	556	
3	0	0	0	0	647	556	
4	0	0	0	0	673	556	
5	0	0	0	0	696	556	
6	0	0	0	0	723	556	
7	0	0	0	0	682	556	
8	0	0	0	0	683	556	
9	0	0	0	0	662	556	
10	0	0	0	0	655	556	
11	0	0	0	0	564	556	
12	0	0	0	0	567	556	
13	0	0	0	0	664	557	
14	0	0	0	0	503	557	
15	0	0	0	0	644	557	
0	0	0	0	0	592	557	
1	0	0	0	0	622	557	
2	0	0	0	0	610	557	
3	0	0	0	0	618	557	
4	0	0	0	0	612	557	
5	0	0	0	0	540	556	
6	0	0	0	0	566	556	
7	0	0	0	0	516	557	
8	0	0	0	0	492	556	
9	0	0	0	0	492	556	
10	0	0	0	0	471	556	
11	0	0	0	0	492	556	
12	0	0	0	0	465	556	
13	0	0	0	0	466	556	
14	0	0	0	0	483	556	
15	0	0	0	0	425	556	
0	0	0	0	0	452	557	
1	0	0	0	0	388	557	
2	0	0	0	0	484	556	
3	0	0	0	0	617	557	
4	0	0	0	0	620	557	
5	0	0	0	0	532	557	
6	0	0	0	0	480	557	
7	0	0	0	0	435	557	
8	0	0	0	0	439	557	
9	0	0	0	0	482	557	
10	0	0	0	0	456	557	
11	0	0	0	0	474	557	
12	0	0	0	0	494	556	
13	0	0	0	0	494	556	
14	0	0	0	0	492	557	
15	0	0	0	0	470	557	
0	0	0	0	0	504	557	
1	0	0	0	0	487	557	
2	0	0	0	0	489	557	
3	0	0	0	0	503	557	
4	0	0	0	0	494	557	
5	0	0	0	0	480	557	
6	0	0	0	0	525	557	
7	0	0	0	0	516	557	
8	0	0	0	0	525	557	
9	0	0	0	0	563	557	
10	0	0	0	0	507	557	
11	0	0	0	0	538	557	
12	0	0	0	0	461	557	
13	0	0	0	0	558	557	
14	0	0	0	0	400	557	
15	0	0	0	0	531	557	
0	0	0	0	0	472	557	
1	0	0	0	0	479	558	
2	0	0	0	0	443	558	
3	0	0	0	0	444	558	
4	0	0	0	0	415	557	
5	0	0	0	0	446	557	
6	0	0	0	0	435	558	
7	0	0	0	0	463	557	
8	0	0	0	0	465	558	
9	0	0	0	0	468	558	
10	0	0	0	0	508	558	
11	0	0	0	0	502	558	
12	0	0	0	0	500	558	
13	0	0	0	0	483	558	
14	0	0	0	0	530	558	
15	0	0	0	0	507	558	
0	0	0	0	0	501	558	
1	0	0	0	0	564	558	
2	0	0	0	0	510	559	
3	0	0	0	0	522	559	
4	0	0	0	0	489	559	
5	0	0	0	0	511	559	
6	0	0	0	0	486	558	
7	0	0	0	0	489	558	
8	0	0	0	0	481	559	
9	0	0	0	0	495	558	
10	0	0	0	0	515	558	
11	0	0	0	0	514	558	
12	0	0	0	0	503	558	
13	0	0	0	0	529	558	
14	0	0	0	0	522	558	
15	0	0	0	0	543	558	
0	0	0	0	0	510	558	
1	0	0	0	0	540	558	
2	0	0	0	0	525	558	
3	0	0	0	0	541	558	
4	0	0	0	0	527	558	
5	0	0	0	0	521	558	
6	0	0	0	0	532	559	
7	0	0	0	0	574	559	
8	0	0	0	0	546	558	
9	0	0	0	0	531	559	
10	0	0	0	0	553	558	
11	0	0	0	0	499	558	
12	0	0	0	0	533	559	
13	0	0	0	0	546	558	
14	0	0	0	0	469	558	
15	0	0	0	0	491	558	
0	0	0	0	0	531	558	
1	0	0	0	0	514	558	
2	0	0	0	0	550	559	
3	0	0	0	0	530	559	
4	0	0	0	0	508	559	
5	0	0	0	0	467	559	
6	0	0	0	0	509	559	
7	0	0	0	0	500	558	
8	0	0	0	0	551	559	
9	0	0	0	0	557	559	
10	0	0	0	0	535	559	
11	0	0	0	0	530	559	
12	0	0	0	0	546	558	
13	0	0	0	0	542	559	
14	0	0	0	0	527	559	
15	0	0	0	0	547	559	
0	0	0	0	0	529	559	
1	0	0	0	0	542	559	
2	0	0	0	0	509	559	
3	0	0	0	0	508	559	
4	0	0	0	0	474	559	
5	0	0	0	0	496	559	
6	0	0	0	0	491	559	
7	0	0	0	0	505	559	
8	0	0	0	0	511	559	
9	0	0	0	0	452	559	
10	0	0	0	0	516	559	
11	0	0	0	0	495	559	
12	0	0	0	0	468	559	
13	0	0	0	0	560	560	
14	0	0	0	0	705	560	
15	0	0	0	0	695	559	
0	0	0	0	0	532	559	
1	0	0	0	0	490	560	
2	0	0	0	0	453	560	
3	0	0	0	0	447	560	
4	0	0	0	0	504	560	
5	0	0	0	0	465	560	
6	0	0	0	0	484	560	
7	0	0	0	0	444	560	
8	0	0	0	0	480	560	
9	0	0	0	0	472	560	
10	0	0	0	0	489	560	
11	0	0	0	0	471	560	
12	0	0	0	0	476	560	
13	0	0	0	0	519	560	
14	0	0	0	0	548	560	
15	0	0	0	0	486	560	
0	0	0	0	0	457	560	
1	0	0	0	0	459	560	
2	0	0	0	0	457	560	
3	0	0	0	0	524	560	
4	0	0	0	0	568	560	
5	0	0	0	0	530	560	
6	0	0	0	0	537	560	
7	0	0	0	0	569	560	
8	0	0	0	0	574	560	
9	0	0	0	0	542	560	
10	0	0	0	0	519	560	
11	0	0	0	0	509	560	
12	0	0	0	0	521	560	
13	0	0	0	0	508	560	
14	0	0	0	0	528	560	
15	0	0	0	0	482	560	
0	0	0	0	0	461	560	
1	0	0	0	0	493	560	
2	0	0	0	0	479	561	
3	0	0	0	0	479	560	
4	0	0	0	0	473	561	
5	0	0	0	0	439	561	
6	0	0	0	0	430	561	
7	0	0	0	0	483	561	
8	0	0	0	0	441	561	
9	0	0	0	0	440	561	
10	0	0	0	0	463	561	
11	0	0	0	0	488	561	
12	0	0	0	0	492	561	
13	0	0	0	0	511	561	
14	0	0	0	0	562	561	
15	0	0	0	0	488	561	
0	0	0	0	0	561	561	
1	0	0	0	0	596	561	
2	0	0	0	0	465	561	
3	0	0	0	0	480	561	
4	0	0	0	0	512	561	
5	0	0	0	0	482	562	
6	0	0	0	0	568	562	
7	0	0	0	0	550	561	
8	0	0	0	0	553	562	
9	0	0	0	0	526	561	
10	0	0	0	0	527	561	
11	0	0	0	0	512	561	
12	0	0	0	0	529	561	
13	0	0	0	0	512	561	
14	0	0	0	0	543	561	
15	0	0	0	0	501	561	
0	0	0	0	0	512	561	
1	0	0	0	0	472	561	
2	0	0	0	0	512	561	
3	0	0	0	0	459	562	
4	0	0	0	0	469	562	
5	0	0	0	0	467	562	
6	0	0	0	0	462	561	
7	0	0	0	0	446	562	
8	0	0	0	0	448	562	
9	0	0	0	0	476	562	
10	0	0	0	0	495	562	
11	0	0	0	0	487	563	
12	0	0	0	0	530	563	
13	0	0	0	0	571	562	
14	0	0	0	0	557	562	
15	0	0	0	0	613	562	
0	0	0	0	0	464	562	
1	0	0	0	0	650	563	
2	0	0	0	0	400	562	
3	0	0	0	0	461	563	
4	0	0	0	0	560	563	
5	0	0	0	0	557	563	
6	0	0	0	0	578	563	
7	0	0	0	0	592	563	
8	0	0	0	0	591	563	
9	0	0	0	0	575	563	
10	0	0	0	0	573	563	
11	0	0	0	0	568	563	
12	0	0	0	0	529	563	
13	0	0	0	0	515	563	
14	0	0	0	0	504	563	
15	0	0	0	0	508	563	
0	0	0	0	0	461	563	
1	0	0	0	0	500	563	
2	0	0	0	0	515	563	
3	0	0	0	0	484	563	
4	0	0	0	0	486	563	
5	0	0	0	0	447	563	
6	0	0	0	0	477	563	
7	0	0	0	0	513	563	
8	0	0	0	0	603	564	
9	0	0	0	0	649	564	
10	0	0	0	0	489	564	
11	0	0	0	0	487	564	
12	0	0	0	0	467	564	
13	0	0	0	0	529	564	
14	0	0	0	0	421	564	
15	0	0	0	0	590	564	
0	0	0	0	0	568	564	
1	0	0	0	0	476	564	
2	0	0	0	0	526	564	
3	0	0	0	0	457	565	
4	0	0	0	0	474	565	
5	0	0	0	0	529	565	
6	0	0	0	0	561	564	
7	0	0	0	0	579	564	
8	0	0	0	0	580	564	
9	0	0	0	0	549	564	
10	0	0	0	0	516	564	
11	0	0	0	0	539	564	
12	0	0	0	0	525	564	
13	0	0	0	0	531	564	
14	0	0	0	0	439	564	
15	0	0	0	0	514	564	
0	0	0	0	0	545	564	
1	0	0	0	0	520	564	
2	0	0	0	0	456	564	
3	0	0	0	0	436	565	
4	0	0	0	0	500	564	
5	0	0	0	0	486	565	
6	0	0	0	0	455	565	
7	0	0	0	0	439	565	
8	0	0	0	0	451	566	
9	0	0	0	0	433	566	
10	0	0	0	0	508	566	
11	0	0	0	0	464	566	
12	0	0	0	0	496	566	
13	0	0	0	0	499	566	
14	0	0	0	0	491	566	
15	0	0	0	0	500	566	
0	0	0	0	0	473	566	
1	0	0	0	0	491	566	
2	0	0	0	0	485	566	
3	0	0	0	0	513	566	
4	0	0	0	0	481	565	
5	0	0	0	0	516	566	
6	0	0	0	0	507	565	
7	0	0	0	0	517	566	
8	0	0	0	0	497	566	
9	0	0	0	0	535	566	
10	0	0	0	0	487	566	
11	0	0	0	0	521	566	
12	0	0	0	0	490	566	
13	0	0	0	0	499	566	
14	0	0	0	0	457	566	
15	0	0	0	0	519	566	
0	0	0	0	0	512	566	
1	0	0	0	0	503	566	
2	0	0	0	0	475	566	
3	0	0	0	0	501	566	
4	0	0	0	0	504	566	
5	0	0	0	0	521	566	
6	0	0	0	0	508	567	
7	0	0	0	0	515	566	
8	0	0	0	0	507	567	
9	0	0	0	0	538	567	
10	0	0	0	0	496	567	
11	0	0	0	0	495	567	
12	0	0	0	0	543	567	
13	0	0	0	0	472	567	
14	0	0	0	0	508	566	
15	0	0	0	0	507	566	
0	0	0	0	0	512	567	
1	0	0	0	0	539	566	
2	0	0	0	0	508	566	
3	0	0	0	0	519	567	
4	0	0	0	0	541	567	
5	0	0	0	0	515	567	
6	0	0	0	0	532	567	
7	0	0	0	0	503	567	
8	0	0	0	0	497	567	
9	0	0	0	0	517	566	
10	0	0	0	0	498	567	
11	0	0	0	0	532	566	
12	0	0	0	0	508	566	
13	0	0	0	0	514	566	
14	0	0	0	0	522	566	
15	0	0	0	0	542	566	
0	0	0	0	0	499	566	
1	0	0	0	0	525	566	
2	0	0	0	0	520	566	
3	0	0	0	0	545	566	
4	0	0	0	0	548	567	
5	0	0	0	0	526	567	
6	0	0	0	0	501	567	
7	0	0	0	0	500	568	
8	0	0	0	0	511	567	
9	0	0	0	0	513	568	
10	0	0	0	0	467	567	
11	0	0	0	0	494	568	
12	0	0	0	0	490	568	
13	0	0	0	0	515	568	
14	0	0	0	0	532	568	
15	0	0	0	0	524	568	
0	0	0	0	0	527	568	
1	0	0	0	0	572	569	
2	0	0	0	0	733	569	
3	0	0	0	0	707	569	
4	0	0	0	0	563	569	
5	0	0	0	0	485	569	
6	0	0	0	0	501	569	
7	0	0	0	0	487	569	
8	0	0	0	0	458	569	
9	0	0	0	0	507	569	
10	0	0	0	0	531	569	
11	0	0	0	0	450	570	
12	0	0	0	0	500	569	
13	0	0	0	0	435	570	
14	0	0	0	0	496	570	
15	0	0	0	0	496	570	
0	0	0	0	0	508	570	
1	0	0	0	0	497	570	
2	0	0	0	0	526	570	
3	0	0	0	0	488	570	
4	0	0	0	0	492	570	
5	0	0	0	0	509	569	
6	0	0	0	0	526	569	
7	0	0	0	0	477	569	
8	0	0	0	0	511	569	
9	0	0	0	0	526	569	
10	0	0	0	0	424	569	
11	0	0	0	0	511	569	
12	0	0	0	0	548	570	
13	0	0	0	0	532	570	
14	0	0	0	0	513	570	
15	0	0	0	0	507	570	
0	0	0	0	0	515	570	
1	0	0	0	0	502	570	
2	0	0	0	0	501	570	
3	0	0	0	0	517	570	
4	0	0	0	0	511	571	
5	0	0	0	0	499	571	
6	0	0	0	0	574	571	
7	0	0	0	0	473	571	
8	0	0	0	0	528	571	
9	0	0	0	0	433	571	
10	0	0	0	0	587	571	
11	0	0	0	0	486	571	
12	0	0	0	0	469	571	
13	0	0	0	0	521	571	
14	0	0	0	0	525	572	
15	0	0	0	0	511	572	
0	0	0	0	0	474	572	
1	0	0	0	0	532	571	
2	0	0	0	0	472	571	
3	0	0	0	0	428	571	
4	0	0	0	0	448	571	
5	0	0	0	0	621	571	
6	0	0	0	0	396	571	
7	0	0	0	0	471	571	
8	0	0	0	0	489	572	
9	0	0	0	0	500	571	
10	0	0	0	0	548	571	
11	0	0	0	0	499	570	
12	0	0	0	0	522	571	
13	0	0	0	0	558	571	
14	0	0	0	0	546	571	
15	0	0	0	0	547	571	
0	0	0	0	0	551	571	
1	0	0	0	0	553	571	
2	0	0	0	0	512	571	
3	0	0	0	0	537	571	
4	0	0	0	0	536	572	
5	0	0	0	0	506	572	
6	0	0	0	0	471	572	
7	0	0	0	0	485	572	
8	0	0	0	0	500	572	
9	0	0	0	0	472	572	
10	0	0	0	0	457	572	
11	0	0	0	0	434	572	
12	0	0	0	0	504	572	
13	0	0	0	0	388	571	
14	0	0	0	0	470	572	
15	0	0	0	0	485	571	
0	0	0	0	0	483	571	
1	0	0	0	0	509	571	
2	0	0	0	0	523	571	
3	0	0	0	0	476	571	
4	0	0	0	0	535	571	
5	0	0	0	0	526	572	
6	0	0	0	0	520	572	
7	0	0	0	0	536	572	
8	0	0	0	0	576	572	
9	0	0	0	0	542	572	
10	0	0	0	0	496	572	
11	0	0	0	0	553	572	
12	0	0	0	0	539	572	
13	0	0	0	0	511	572	
14	0	0	0	0	519	572	
15	0	0	0	0	502	572	
0	0	0	0	0	511	572	
1	0	0	0	0	499	572	
2	0	0	0	0	467	572	
3	0	0	0	0	442	572	
4	0	0	0	0	354	572	
5	0	0	0	0	481	572	
6	0	0	0	0	380	572	
7	0	0	0	0	481	572	
8	0	0	0	0	444	571	
9	0	0	0	0	482	571	
10	0	0	0	0	490	571	
11	0	0	0	0	660	571	
12	0	0	0	0	679	571	
13	0	0	0	0	652	571	
14	0	0	0	0	470	571	
15	0	0	0	0	516	571	
0	0	0	0	0	480	571	
1	0	0	0	0	503	572	
2	0	0	0	0	487	572	
3	0	0	0	0	545	572	
4	0	0	0	0	549	572	
5	0	0	0	0	444	572	
6	0	0	0	0	448	572	
7	0	0	0	0	519	572	
8	0	0	0	0	479	572	
9	0	0	0	0	467	572	
10	0	0	0	0	587	572	
11	0	0	0	0	510	572	
12	0	0	0	0	483	572	
13	0	0	0	0	500	572	
14	0	0	0	0	457	572	
15	0	0	0	0	424	571	
0	0	0	0	0	475	571	
1	0	0	0	0	477	571	
2	0	0	0	0	479	571	
3	0	0	0	0	522	572	
4	0	0	0	0	547	571	
5	0	0	0	0	527	572	
6	0	0	0	0	560	572	
7	0	0	0	0	539	572	
8	0	0	0	0	556	572	
9	0	0	0	0	548	572	
10	0	0	0	0	533	573	
11	0	0	0	0	583	573	
12	0	0	0	0	480	573	
13	0	0	0	0	490	573	
14	0	0	0	0	509	573	
15	0	0	0	0	544	573	
0	0	0	0	0	528	573	
1	0	0	0	0	422	573	
2	0	0	0	0	510	573	
3	0	0	0	0	484	573	
4	0	0	0	0	509	573	
5	0	0	0	0	466	573	
6	0	0	0	0	444	573	
7	0	0	0	0	460	573	
8	0	0	0	0	438	572	
9	0	0	0	0	465	572	
10	0	0	0	0	424	572	
11	0	0	0	0	448	572	
12	0	0	0	0	470	572	
13	0	0	0	0	540	572	
14	0	0	0	0	481	572	
15	0	0	0	0	492	573	
0	0	0	0	0	511	573	
1	0	0	0	0	515	573	
2	0	0	0	0	528	573	
3	0	0	0	0	515	573	
4	0	0	0	0	532	574	
5	0	0	0	0	601	574	
6	0	0	0	0	516	574	
7	0	0	0	0	617	574	
8	0	0	0	0	493	574	
9	0	0	0	0	450	574	
10	0	0	0	0	639	574	
11	0	0	0	0	428	574	
12	0	0	0	0	526	574	
13	0	0	0	0	519	574	
14	0	0	0	0	524	574	
15	0	0	0	0	531	573	
0	0	0	0	0	541	573	
1	0	0	0	0	389	573	
2	0	0	0	0	405	573	
3	0	0	0	0	470	573	
4	0	0	0	0	414	573	
5	0	0	0	0	586	573	
6	0	0	0	0	445	572	
7	0	0	0	0	476	572	
8	0	0	0	0	526	572	
9	0	0	0	0	496	572	
10	0	0	0	0	506	572	
11	0	0	0	0	529	572	
12	0	0	0	0	534	573	
13	0	0	0	0	553	573	
14	0	0	0	0	519	573	
15	0	0	0	0	580	574	
0	0	0	0	0	481	573	
1	0	0	0	0	580	573	
2	0	0	0	0	543	573	
3	0	0	0	0	705	573	
4	0	0	0	0	351	574	
5	0	0	0	0	481	573	
6	0	0	0	0	492	574	
7	0	0	0	0	491	573	
8	0	0	0	0	492	573	
9	0	0	0	0	483	573	
10	0	0	0	0	546	573	
11	0	0	0	0	448	573	
12	0	0	0	0	529	573	
13	0	0	0	0	492	573	
14	0	0	0	0	514	573	
15	0	0	0	0	508	572	
0	0	0	0	0	654	573	
1	0	0	0	0	615	573	
2	0	0	0	0	527	573	
3	0	0	0	0	473	573	
4	0	0	0	0	459	573	
5	0	0	0	0	475	574	
6	0	0	0	0	488	574	
7	0	0	0	0	506	574	
8	0	0	0	0	513	574	
9	0	0	0	0	479	574	
10	0	0	0	0	534	574	
11	0	0	0	0	515	574	
12	0	0	0	0	492	575	
13	0	0	0	0	522	575	
14	0	0	0	0	527	575	
15	0	0	0	0	543	575	
0	0	0	0	0	539	574	
1	0	0	0	0	539	574	
2	0	0	0	0	578	574	
3	0	0	0	0	559	573	
4	0	0	0	0	560	574	
5	0	0	0	0	519	573	
6	0	0	0	0	547	574	
7	0	0	0	0	534	574	
8	0	0	0	0	534	574	
9	0	0	0	0	507	574	
10	0	0	0	0	542	574	
11	0	0	0	0	478	574	
12	0	0	0	0	524	574	
13	0	0	0	0	494	574	
14	0	0	0	0	520	574	
15	0	0	0	0	442	574	
0	0	0	0	0	481	574	
1	0	0	0	0	462	574	
2	0	0	0	0	455	574	
3	0	0	0	0	463	575	
4	0	0	0	0	430	575	
5	0	0	0	0	456	575	
6	0	0	0	0	481	575	
7	0	0	0	0	488	575	
8	0	0	0	0	475	575	
9	0	0	0	0	505	575	
10	0	0	0	0	508	575	
11	0	0	0	0	543	575	
12	0	0	0	0	524	575	
13	0	0	0	0	532	575	
14	0	0	0	0	485	575	
15	0	0	0	0	492	575	
0	0	0	0	0	522	575	
1	0	0	0	0	498	575	
2	0	0	0	0	510	575	
3	0	0	0	0	508	575	
4	0	0	0	0	491	575	
5	0	0	0	0	504	575	
6	0	0	0	0	524	574	
7	0	0	0	0	484	574	
8	0	0	0	0	518	574	
9	0	0	0	0	525	574	
10	0	0	0	0	516	574	
11	0	0	0	0	523	574	
12	0	0	0	0	526	574	
13	0	0	0	0	527	573	
14	0	0	0	0	524	573	
15	0	0	0	0	538	573	
0	0	0	0	0	551	573	
1	0	0	0	0	535	573	
2	0	0	0	0	517	573	
3	0	0	0	0	530	574	
4	0	0	0	0	520	574	
5	0	0	0	0	542	573	
6	0	0	0	0	548	574	
7	0	0	0	0	511	573	
8	0	0	0	0	534	573	
9	0	0	0	0	500	573	
10	0	0	0	0	540	573	
11	0	0	0	0	532	573	
12	0	0	0	0	521	573	
13	0	0	0	0	514	573	
14	0	0	0	0	507	573	
15	0	0	0	0	511	573	
0	0	0	0	0	507	573	
1	0	0	0	0	479	573	
2	0	0	0	0	527	572	
3	0	0	0	0	496	573	
4	0	0	0	0	487	573	
5	0	0	0	0	496	573	
6	0	0	0	0	496	572	
7	0	0	0	0	462	572	
8	0	0	0	0	454	573	
9	0	0	0	0	481	572	
10	0	0	0	0	482	572	
11	0	0	0	0	483	572	
12	0	0	0	0	453	573	
13	0	0	0	0	462	573	
14	0	0	0	0	506	573	
15	0	0	0	0	498	573	
0	0	0	0	0	487	573	
1	0	0	0	0	488	573	
2	0	0	0	0	541	573	
3	0	0	0	0	692	573	
4	0	0	0	0	699	574	
5	0	0	0	0	507	574	
6	0	0	0	0	463	574	
7	0	0	0	0	463	574	
8	0	0	0	0	461	574	
9	0	0	0	0	498	574	
10	0	0	0	0	476	574	
11	0	0	0	0	459	574	
12	0	0	0	0	486	575	
13	0	0	0	0	499	574	
14	0	0	0	0	450	575	
15	0	0	0	0	481	575	
0	0	0	0	0	504	574	
1	0	0	0	0	491	575	
2	0	0	0	0	504	575	
3	0	0	0	0	519	575	
4	0	0	0	0	519	575	
5	0	0	0	0	486	575	
6	0	0	0	0	521	575	
7	0	0	0	0	519	574	
8	0	0	0	0	517	575	
9	0	0	0	0	519	575	
10	0	0	0	0	536	575	
11	0	0	0	0	538	575	
12	0	0	0	0	536	574	
13	0	0	0	0	556	575	
14	0	0	0	0	533	574	
15	0	0	0	0	520	574	
0	0	0	0	0	524	574	
1	0	0	0	0	491	574	
2	0	0	0	0	485	574	
3	0	0	0	0	497	574	
4	0	0	0	0	466	574	
5	0	0	0	0	491	574	
6	0	0	0	0	476	574	
7	0	0	0	0	513	574	
8	0	0	0	0	476	574	
9	0	0	0	0	482	574	
10	0	0	0	0	480	574	
11	0	0	0	0	501	574	
12	0	0	0	0	499	574	
13	0	0	0	0	483	574	
14	0	0	0	0	503	574	
15	0	0	0	0	500	574	
0	0	0	0	0	506	574	
1	0	0	0	0	493	574	
2	0	0	0	0	506	574	
3	0	0	0	0	527	574	
4	0	0	0	0	508	574	
5	0	0	0	0	509	574	
6	0	0	0	0	497	574	
7	0	0	0	0	534	574	
8	0	0	0	0	531	574	
9	0	0	0	0	512	574	
10	0	0	0	0	515	574	
11	0	0	0	0	530	574	
12	0	0	0	0	511	574	
13	0	0	0	0	516	574	
14	0	0	0	0	507	574	
15	0	0	0	0	515	574	
0	0	0	0	0	550	574	
1	0	0	0	0	502	574	
2	0	0	0	0	502	574	
3	0	0	0	0	513	575	
4	0	0	0	0	519	574	
5	0	0	0	0	524	575	
6	0	0	0	0	507	574	
7	0	0	0	0	505	575	
8	0	0	0	0	506	575	
9	0	0	0	0	504	575	
10	0	0	0	0	473	575	
11	0	0	0	0	511	575	
12	0	0	0	0	504	575	
13	0	0	0	0	510	575	
14	0	0	0	0	503	575	
15	0	0	0	0	521	575	
0	0	0	0	0	492	575	
1	0	0	0	0	526	575	
2	0	0	0	0	517	575	
3	0	0	0	0	475	575	
4	0	0	0	0	514	575	
5	0	0	0	0	472	575	
6	0	0	0	0	544	575	
7	0	0	0	0	534	575	
8	0	0	0	0	492	575	
9	0	0	0	0	497	575	
10	0	0	0	0	476	575	
11	0	0	0	0	485	575	
12	0	0	0	0	488	575	
13	0	0	0	0	482	575	
14	0	0	0	0	480	575	
15	0	0	0	0	508	575	
0	0	0	0	0	482	575	
1	0	0	0	0	461	575	
2	0	0	0	0	480	575	
3	0	0	0	0	512	575	
4	0	0	0	0	509	575	
5	0	0	0	0	550	575	
6	0	0	0	0	709	575	
7	0	0	0	0	687	575	
8	0	0	0	0	555	575	
9	0	0	0	0	466	575	
10	0	0	0	0	485	575	
11	0	0	0	0	512	575	
12	0	0	0	0	496	575	
13	0	0	0	0	480	575	
14	0	0	0	0	512	575	
15	0	0	0	0	513	575	
0	0	0	0	0	524	575	
1	0	0	0	0	558	575	
2	0	0	0	0	483	575	
3	0	0	0	0	524	575	
4	0	0	0	0	518	575	
5	0	0	0	0	564	575	
6	0	0	0	0	574	575	
7	0	0	0	0	519	575	
8	0	0	0	0	536	575	
9	0	0	0	0	521	575	
10	0	0	0	0	511	575	
11	0	0	0	0	534	575	
12	0	0	0	0	544	575	
13	0	0	0	0	585	575	
14	0	0	0	0	546	575	
15	0	0	0	0	498	575	
0	0	0	0	0	591	575	
1	0	0	0	0	542	575	
2	0	0	0	0	539	575	
3	0	0	0	0	507	575	
4	0	0	0	0	524	575	
5	0	0	0	0	483	575	
6	0	0	0	0	546	575	
7	0	0	0	0	503	574	
8	0	0	0	0	492	574	
9	0	0	0	0	550	575	
10	0	0	0	0	561	574	
11	0	0	0	0	540	575	
12	0	0	0	0	561	575	
13	0	0	0	0	555	574	
14	0	0	0	0	498	575	
15	0	0	0	0	507	574	
0	0	0	0	0	516	574	
1	0	0	0	0	515	575	
2	0	0	0	0	512	575	
3	0	0	0	0	553	575	
4	0	0	0	0	504	574	
5	0	0	0	0	497	574	
6	0	0	0	0	515	574	
7	0	0	0	0	510	574	
8	0	0	0	0	555	575	
9	0	0	0	0	467	574	
10	0	0	0	0	481	574	
11	0	0	0	0	449	574	
12	0	0	0	0	535	574	
13	0	0	0	0	410	574	
14	0	0	0	0	484	574	
15	0	0	0	0	504	574	
0	0	0	0	0	513	574	
1	0	0	0	0	546	574	
2	0	0	0	0	489	574	
3	0	0	0	0	579	574	
4	0	0	0	0	535	574	
5	0	0	0	0	537	574	
6	0	0	0	0	539	574	
7	0	0	0	0	512	574	
8	0	0	0	0	538	574	
9	0	0	0	0	496	574	
10	0	0	0	0	457	574	
11	0	0	0	0	439	574	
12	0	0	0	0	395	574	
13	0	0	0	0	403	574	
14	0	0	0	0	419	574	
15	0	0	0	0	382	574	
0	0	0	0	0	453	574	
1	0	0	0	0	398	574	
2	0	0	0	0	427	574	
3	0	0	0	0	414	574	
4	0	0	0	0	476	574	
5	0	0	0	0	463	574	
6	0	0	0	0	500	574	
7	0	0	0	0	652	574	
8	0	0	0	0	675	574	
9	0	0	0	0	570	574	
10	0	0	0	0	451	574	
11	0	0	0	0	418	574	
12	0	0	0	0	399	574	
13	0	0	0	0	389	574	
14	0	0	0	0	379	574	
15	0	0	0	0	391	574	
0	0	0	0	0	359	574	
1	0	0	0	0	390	574	
2	0	0	0	0	416	574	
3	0	0	0	0	400	574	
4	0	0	0	0	438	574	
5	0	0	0	0	444	574	
6	0	0	0	0	452	574	
7	0	0	0	0	508	575	
8	0	0	0	0	489	575	
9	0	0	0	0	523	574	
10	0	0	0	0	553	575	
11	0	0	0	0	528	574	
12	0	0	0	0	534	575	
13	0	0	0	0	526	574	
14	0	0	0	0	545	574	
15	0	0	0	0	546	575	
0	0	0	0	0	564	574	
1	0	0	0	0	630	575	
2	0	0	0	0	568	574	
3	0	0	0	0	606	574	
4	0	0	0	0	599	574	
5	0	0	0	0	530	574	
6	0	0	0	0	563	574	
7	0	0	0	0	597	574	
8	0	0	0	0	568	574	
9	0	0	0	0	577	574	
10	0	0	0	0	584	574	
11	0	0	0	0	583	574	
12	0	0	0	0	552	574	
13	0	0	0	0	522	574	
14	0	0	0	0	539	574	
15	0	0	0	0	568	574	
0	0	0	0	0	554	574	
1	0	0	0	0	573	574	
2	0	0	0	0	575	574	
3	0	0	0	0	526	574	
4	0	0	0	0	533	574	
5	0	0	0	0	532	574	
6	0	0	0	0	489	574	
7	0	0	0	0	504	574	
8	0	0	0	0	488	575	
9	0	0	0	0	483	574	
10	0	0	0	0	490	574	
11	0	0	0	0	506	574	
12	0	0	0	0	510	574	
13	0	0	0	0	493	575	
14	0	0	0	0	526	574	
15	0	0	0	0	494	575	
0	0	0	0	0	501	575	
1	0	0	0	0	522	575	
2	0	0	0	0	485	575	
3	0	0	0	0	517	574	
4	0	0	0	0	523	575	
5	0	0	0	0	529	575	
6	0	0	0	0	510	575	
7	0	0	0	0	511	575	
8	0	0	0	0	506	574	
9	0	0	0	0	510	575	
10	0	0	0	0	523	575	
11	0	0	0	0	496	574	
12	0	0	0	0	487	575	
13	0	0	0	0	487	574	
14	0	0	0	0	508	575	
15	0	0	0	0	504	575	
0	0	0	0	0	505	574	
1	0	0	0	0	524	575	
2	0	0	0	0	496	574	
3	0	0	0	0	503	575	
4	0	0	0	0	516	575	
5	0	0	0	0	493	575	
6	0	0	0	0	557	575	
7	0	0	0	0	726	574	
8	0	0	0	0	669	575	
9	0	0	0	0	538	575	
10	0	0	0	0	467	574	
11	0	0	0	0	442	575	
12	0	0	0	0	435	574	
13	0	0	0	0	448	575	
14	0	0	0	0	439	574	
15	0	0	0	0	438	574	
0	0	0	0	0	456	574	
1	0	0	0	0	452	574	
2	0	0	0	0	472	574	
3	0	0	0	0	471	574	
4	0	0	0	0	460	574	
5	0	0	0	0	472	574	
6	0	0	0	0	479	574	
7	0	0	0	0	492	574	
8	0	0	0	0	496	574	
9	0	0	0	0	510	574	
10	0	0	0	0	539	574	
11	0	0	0	0	496	573	
12	0	0	0	0	526	573	
13	0	0	0	0	519	573	
14	0	0	0	0	527	573	
15	0	0	0	0	520	573	
0	0	0	0	0	520	573	
1	0	0	0	0	521	573	
2	0	0	0	0	526	573	
3	0	0	0	0	512	573	
4	0	0	0	0	500	573	
5	0	0	0	0	504	573	
6	0	0	0	0	506	573	
7	0	0	0	0	483	573	
8	0	0	0	0	496	573	
9	0	0	0	0	508	573	
10	0	0	0	0	490	573	
11	0	0	0	0	508	573	
12	0	0	0	0	503	573	
13	0	0	0	0	503	573	
14	0	0	0	0	522	573	
15	0	0	0	0	524	573	
0	0	0	0	0	519	573	
1	0	0	0	0	509	573	
2	0	0	0	0	520	573	
3	0	0	0	0	541	573	
4	0	0	0	0	513	573	
5	0	0	0	0	519	573	
6	0	0	0	0	528	573	
7	0	0	0	0	519	573	
8	0	0	0	0	515	574	
9	0	0	0	0	520	573	
10	0	0	0	0	508	574	
11	0	0	0	0	532	574	
12	0	0	0	0	511	574	
13	0	0	0	0	516	574	
14	0	0	0	0	513	574	
15	0	0	0	0	487	574	
0	0	0	0	0	502	574	
1	0	0	0	0	494	574	
2	0	0	0	0	513	574	
3	0	0	0	0	505	574	
4	0	0	0	0	511	574	
5	0	0	0	0	504	574	
6	0	0	0	0	502	574	
7	0	0	0	0	508	574	
8	0	0	0	0	518	574	
9	0	0	0	0	499	574	
10	0	0	0	0	500	574	
11	0	0	0	0	513	574	
12	0	0	0	0	492	574	
13	0	0	0	0	513	574	
14	0	0	0	0	512	574	
15	0	0	0	0	513	574	
0	0	0	0	0	495	574	
1	0	0	0	0	512	574	
2	0	0	0	0	526	574	
3	0	0	0	0	484	574	
4	0	0	0	0	501	574	
5	0	0	0	0	502	574	
6	0	0	0	0	505	574	
7	0	0	0	0	505	574	
8	0	0	0	0	526	574	
9	0	0	0	0	504	574	
10	0	0	0	0	496	574	
11	0	0	0	0	487	574	
12	0	0	0	0	524	574	
13	0	0	0	0	492	575	
14	0	0	0	0	496	574	
15	0	0	0	0	502	574	
0	0	0	0	0	512	575	
1	0	0	0	0	492	574	
2	0	0	0	0	513	575	
3	0	0	0	0	508	574	
4	0	0	0	0	487	574	
5	0	0	0	0	529	575	
6	0	0	0	0	496	575	
7	0	0	0	0	515	575	
8	0	0	0	0	538	575	
9	0	0	0	0	513	574	
10	0	0	0	0	536	575	
11	0	0	0	0	529	574	
12	0	0	0	0	536	575	
13	0	0	0	0	496	575	
14	0	0	0	0	509	574	
15	0	0	0	0	515	575	
0	0	0	0	0	484	574	
1	0	0	0	0	519	575	
2	0	0	0	0	495	574	
3	0	0	0	0	515	574	
4	0	0	0	0	496	575	
5	0	0	0	0	531	574	
6	0	0	0	0	478	575	
7	0	0	0	0	506	575	
8	0	0	0	0	611	575	
9	0	0	0	0	720	575	
10	0	0	0	0	705	574	
11	0	0	0	0	529	575	
12	0	0	0	0	505	575	
13	0	0	0	0	469	574	
14	0	0	0	0	476	575	
15	0	0	0	0	493	574	
0	0	0	0	0	513	574	
1	0	0	0	0	471	574	
2	0	0	0	0	515	574	
3	0	0	0	0	525	574	
4	0	0	0	0	568	574	
5	0	0	0	0	551	574	
6	0	0	0	0	544	574	
7	0	0	0	0	547	575	
8	0	0	0	0	543	575	
9	0	0	0	0	576	574	
10	0	0	0	0	541	575	
11	0	0	0	0	569	575	
12	0	0	0	0	596	574	
13	0	0	0	0	627	574	
14	0	0	0	0	618	574	
15	0	0	0	0	599	574	
0	0	0	0	0	591	574	
1	0	0	0	0	551	574	
2	0	0	0	0	515	574	
3	0	0	0	0	469	574	
4	0	0	0	0	445	574	
5	0	0	0	0	408	574	
6	0	0	0	0	408	574	
7	0	0	0	0	368	575	
8	0	0	0	0	333	574	
9	0	0	0	0	355	574	
10	0	0	0	0	306	574	
11	0	0	0	0	308	575	
12	0	0	0	0	353	575	
13	0	0	0	0	337	575	
14	0	0	0	0	366	575	
15	0	0	0	0	345	575	
0	0	0	0	0	351	575	
1	0	0	0	0	356	575	
2	0	0	0	0	382	575	
3	0	0	0	0	344	575	
4	0	0	0	0	355	575	
5	0	0	0	0	366	575	
6	0	0	0	0	401	575	
7	0	0	0	0	411	575	
8	0	0	0	0	427	575	
9	0	0	0	0	463	575	
10	0	0	0	0	454	575	
11	0	0	0	0	451	575	
12	0	0	0	0	464	575	
13	0	0	0	0	496	575	
14	0	0	0	0	512	575	
15	0	0	0	0	544	575	
0	0	0	0	0	529	575	
1	0	0	0	0	544	575	
2	0	0	0	0	574	575	
3	0	0	0	0	579	575	
4	0	0	0	0	600	575	
5	0	0	0	0	568	575	
6	0	0	0	0	567	575	
7	0	0	0	0	580	575	
8	0	0	0	0	598	575	
9	0	0	0	0	600	575	
10	0	0	0	0	581	575	
11	0	0	0	0	614	575	
12	0	0	0	0	608	575	
13	0	0	0	0	611	575	
14	0	0	0	0	618	575	
15	0	0	0	0	614	575	
0	0	0	0	0	591	574	
1	0	0	0	0	564	574	
2	0	0	0	0	586	574	
3	0	0	0	0	596	574	
4	0	0	0	0	564	574	
5	0	0	0	0	571	574	
6	0	0	0	0	593	574	
7	0	0	0	0	582	574	
8	0	0	0	0	571	574	
9	0	0	0	0	576	574	
10	0	0	0	0	589	574	
11	0	0	0	0	564	574	
12	0	0	0	0	567	574	
13	0	0	0	0	551	574	
14	0	0	0	0	576	575	
15	0	0	0	0	544	575	
0	0	0	0	0	543	575	
1	0	0	0	0	538	575	
2	0	0	0	0	555	575	
3	0	0	0	0	518	575	
4	0	0	0	0	540	575	
5	0	0	0	0	540	575	
6	0	0	0	0	519	575	
7	0	0	0	0	529	575	
8	0	0	0	0	536	575	
9	0	0	0	0	523	575	
10	0	0	0	0	535	575	
11	0	0	0	0	533	575	
12	0	0	0	0	537	575	
13	0	0	0	0	519	575	
14	0	0	0	0	533	575	
15	0	0	0	0	532	575	
0	0	0	0	0	535	575	
1	0	0	0	0	507	575	
2	0	0	0	0	535	575	
3	0	0	0	0	504	575	
4	0	0	0	0	496	575	
5	0	0	0	0	524	575	
6	0	0	0	0	471	575	
7	0	0	0	0	520	575	
8	0	0	0	0	524	575	
9	0	0	0	0	513	575	
10	0	0	0	0	497	574	
11	0	0	0	0	510	574	
12	0	0	0	0	615	574	
13	0	0	0	0	715	574	
14	0	0	0	0	684	574	
15	0	0	0	0	430	574	
0	0	0	0	0	479	574	
1	0	0	0	0	446	574	
2	0	0	0	0	442	574	
3	0	0	0	0	439	574	
4	0	0	0	0	452	574	
5	0	0	0	0	441	574	
6	0	0	0	0	451	574	
7	0	0	0	0	470	575	
8	0	0	0	0	455	575	
9	0	0	0	0	456	575	
10	0	0	0	0	461	575	
11	0	0	0	0	474	575	
12	0	0	0	0	464	575	
13	0	0	0	0	476	575	
14	0	0	0	0	493	575	
15	0	0	0	0	492	575	
0	0	0	0	0	484	575	
1	0	0	0	0	517	576	
2	0	0	0	0	499	576	
3	0	0	0	0	512	576	
4	0	0	0	0	541	576	
5	0	0	0	0	529	576	
6	0	0	0	0	539	576	
7	0	0	0	0	536	576	
8	0	0	0	0	564	576	
9	0	0	0	0	526	576	
10	0	0	0	0	527	576	
11	0	0	0	0	529	576	
12	0	0	0	0	518	576	
13	0	0	0	0	496	576	
14	0	0	0	0	471	576	
15	0	0	0	0	491	576	
0	0	0	0	0	497	576	
1	0	0	0	0	476	576	
2	0	0	0	0	497	576	
3	0	0	0	0	510	576	
4	0	0	0	0	499	577	
5	0	0	0	0	484	576	
6	0	0	0	0	496	577	
7	0	0	0	0	514	576	
8	0	0	0	0	517	577	
9	0	0	0	0	481	577	
10	0	0	0	0	488	577	
11	0	0	0	0	496	577	
12	0	0	0	0	499	577	
13	0	0	0	0	503	577	
14	0	0	0	0	508	577	
15	0	0	0	0	507	577	
0	0	0	0	0	503	577	
1	0	0	0	0	505	577	
2	0	0	0	0	504	577	
3	0	0	0	0	516	577	
4	0	0	0	0	483	576	
5	0	0	0	0	484	576	
6	0	0	0	0	490	576	
7	0	0	0	0	499	576	
8	0	0	0	0	502	576	
9	0	0	0	0	473	576	
10	0	0	0	0	514	576	
11	0	0	0	0	504	576	
12	0	0	0	0	479	576	
13	0	0	0	0	501	576	
14	0	0	0	0	494	576	
15	0	0	0	0	511	576	
0	0	0	0	0	500	577	
1	0	0	0	0	487	576	
2	0	0	0	0	486	577	
3	0	0	0	0	514	577	
4	0	0	0	0	513	577	
5	0	0	0	0	512	577	
6	0	0	0	0	526	577	
7	0	0	0	0	517	577	
8	0	0	0	0	508	577	
9	0	0	0	0	518	577	
10	0	0	0	0	526	578	
11	0	0	0	0	497	577	
12	0	0	0	0	514	578	
13	0	0	0	0	506	578	
14	0	0	0	0	537	578	
15	0	0	0	0	524	578	
0	0	0	0	0	525	578	
1	0	0	0	0	529	578	
2	0	0	0	0	527	578	
3	0	0	0	0	523	578	
4	0	0	0	0	531	579	
5	0	0	0	0	521	578	
6	0	0	0	0	523	578	
7	0	0	0	0	510	578	
8	0	0	0	0	518	579	
9	0	0	0	0	519	579	
10	0	0	0	0	527	578	
11	0	0	0	0	524	579	
12	0	0	0	0	496	579	
13	0	0	0	0	514	579	
14	0	0	0	0	513	579	
15	0	0	0	0	514	579	
0	0	0	0	0	514	579	
1	0	0	0	0	506	579	
2	0	0	0	0	528	579	
3	0	0	0	0	516	579	
4	0	0	0	0	499	579	
5	0	0	0	0	493	579	
6	0	0	0	0	481	578	
7	0	0	0	0	489	579	
8	0	0	0	0	477	578	
9	0	0	0	0	510	578	
10	0	0	0	0	501	579	
11	0	0	0	0	494	579	
12	0	0	0	0	487	579	
13	0	0	0	0	502	579	
14	0	0	0	0	521	579	
15	0	0	0	0	545	579	
0	0	0	0	0	683	579	
1	0	0	0	0	726	579	
2	0	0	0	0	604	579	
3	0	0	0	0	479	579	
4	0	0	0	0	472	580	
5	0	0	0	0	459	580	
6	0	0	0	0	472	580	
7	0	0	0	0	476	580	
8	0	0	0	0	455	580	
9	0	0	0	0	476	580	
10	0	0	0	0	473	580	
11	0	0	0	0	493	580	
12	0	0	0	0	494	580	
13	0	0	0	0	504	580	
14	0	0	0	0	502	580	
15	0	0	0	0	518	579	
0	0	0	0	0	519	579	
1	0	0	0	0	507	579	
2	0	0	0	0	519	579	
3	0	0	0	0	525	580	
4	0	0	0	0	523	579	
5	0	0	0	0	524	579	
6	0	0	0	0	528	579	
7	0	0	0	0	531	579	
8	0	0	0	0	535	579	
9	0	0	0	0	537	579	
10	0	0	0	0	526	579	
11	0	0	0	0	537	579	
12	0	0	0	0	544	579	
13	0	0	0	0	497	579	
14	0	0	0	0	505	579	
15	0	0	0	0	519	579	
0	0	0	0	0	487	579	
1	0	0	0	0	484	579	
2	0	0	0	0	495	579	
3	0	0	0	0	479	579	
4	0	0	0	0	485	579	
5	0	0	0	0	480	579	
6	0	0	0	0	521	579	
7	0	0	0	0	470	579	
8	0	0	0	0	490	579	
9	0	0	0	0	490	580	
10	0	0	0	0	509	580	
11	0	0	0	0	507	579	
12	0	0	0	0	517	580	
13	0	0	0	0	508	580	
14	0	0	0	0	513	580	
15	0	0	0	0	497	580	
0	0	0	0	0	496	580	
1	0	0	0	0	508	580	
2	0	0	0	0	504	580	
3	0	0	0	0	519	580	
4	0	0	0	0	494	580	
5	0	0	0	0	503	580	
6	0	0	0	0	502	580	
7	0	0	0	0	504	580	
8	0	0	0	0	512	580	
9	0	0	0	0	492	580	
10	0	0	0	0	515	580	
11	0	0	0	0	511	580	
12	0	0	0	0	502	580	
13	0	0	0	0	509	580	
14	0	0	0	0	514	580	
15	0	0	0	0	504	580	
0	0	0	0	0	517	580	
1	0	0	0	0	506	580	
2	0	0	0	0	524	580	
3	0	0	0	0	512	580	
4	0	0	0	0	510	581	
5	0	0	0	0	507	581	
6	0	0	0	0	513	581	
7	0	0	0	0	509	581	
8	0	0	0	0	521	581	
9	0	0	0	0	512	581	
10	0	0	0	0	515	581	
11	0	0	0	0	515	581	
12	0	0	0	0	514	581	
13	0	0	0	0	487	581	
14	0	0	0	0	501	581	
15	0	0	0	0	516	581	
0	0	0	0	0	500	581	
1	0	0	0	0	513	581	
2	0	0	0	0	515	581	
3	0	0	0	0	496	581	
4	0	0	0	0	526	581	
5	0	0	0	0	512	581	
6	0	0	0	0	515	581	
7	0	0	0	0	525	581	
8	0	0	0	0	524	581	
9	0	0	0	0	531	581	
10	0	0	0	0	518	581	
11	0	0	0	0	513	581	
12	0	0	0	0	511	581	
13	0	0	0	0	509	581	
14	0	0	0	0	517	581	
15	0	0	0	0	537	581	
0	0	0	0	0	526	581	
1	0	0	0	0	529	581	
2	0	0	0	0	524	581	
3	0	0	0	0	549	581	
4	0	0	0	0	515	581	
5	0	0	0	0	508	581	
6	0	0	0	0	518	581	
7	0	0	0	0	491	581	
8	0	0	0	0	515	581	
9	0	0	0	0	503	581	
10	0	0	0	0	498	581	
11	0	0	0	0	513	581	
12	0	0	0	0	513	581	
13	0	0	0	0	501	581	
14	0	0	0	0	498	581	
15	0	0	0	0	513	581	
0	0	0	0	0	483	581	
1	0	0	0	0	495	581	
2	0	0	0	0	568	581	
3	0	0	0	0	700	581	
4	0	0	0	0	647	581	
5	0	0	0	0	492	580	
6	0	0	0	0	461	580	
7	0	0	0	0	456	580	
8	0	0	0	0	464	580	
9	0	0	0	0	481	580	
10	0	0	0	0	485	579	
11	0	0	0	0	492	579	
12	0	0	0	0	494	579	
13	0	0	0	0	510	579	
14	0	0	0	0	501	579	
15	0	0	0	0	494	579	
0	0	0	0	0	501	579	
1	0	0	0	0	527	579	
2	0	0	0	0	505	579	
3	0	0	0	0	561	579	
4	0	0	0	0	517	579	
5	0	0	0	0	531	579	
6	0	0	0	0	537	579	
7	0	0	0	0	545	579	
8	0	0	0	0	578	579	
9	0	0	0	0	529	579	
10	0	0	0	0	559	579	
11	0	0	0	0	553	579	
12	0	0	0	0	587	579	
13	0	0	0	0	553	579	
14	0	0	0	0	580	579	
15	0	0	0	0	563	579	
0	0	0	0	0	557	579	
1	0	0	0	0	555	579	
2	0	0	0	0	527	579	
3	0	0	0	0	512	579	
4	0	0	0	0	507	579	
5	0	0	0	0	518	580	
6	0	0	0	0	489	580	
7	0	0	0	0	502	580	
8	0	0	0	0	497	580	
9	0	0	0	0	496	580	
10	0	0	0	0	501	580	
11	0	0	0	0	509	580	
12	0	0	0	0	492	580	
13	0	0	0	0	486	580	
14	0	0	0	0	492	580	
15	0	0	0	0	500	581	
0	0	0	0	0	486	580	
1	0	0	0	0	478	581	
2	0	0	0	0	442	581	
3	0	0	0	0	446	581	
4	0	0	0	0	467	581	
5	0	0	0	0	462	581	
6	0	0	0	0	472	581	
7	0	0	0	0	480	581	
8	0	0	0	0	454	581	
9	0	0	0	0	414	581	
10	0	0	0	0	424	581	
11	0	0	0	0	416	581	
12	0	0	0	0	407	581	
13	0	0	0	0	394	581	
14	0	0	0	0	374	581	
15	0	0	0	0	312	581	
0	0	0	0	0	368	581	
1	0	0	0	0	359	581	
2	0	0	0	0	415	581	
3	0	0	0	0	464	581	
4	0	0	0	0	494	581	
5	0	0	0	0	456	582	
6	0	0	0	0	481	582	
7	0	0	0	0	569	581	
8	0	0	0	0	588	582	
9	0	0	0	0	559	582	
10	0	0	0	0	633	582	
11	0	0	0	0	628	582	
12	0	0	0	0	596	581	
13	0	0	0	0	624	582	
14	0	0	0	0	645	581	
15	0	0	0	0	613	582	
0	0	0	0	0	617	581	
1	0	0	0	0	632	581	
2	0	0	0	0	845	582	
3	0	0	0	0	742	581	
4	0	0	0	0	679	582	
5	0	0	0	0	609	582	
6	0	0	0	0	571	581	
7	0	0	0	0	542	582	
8	0	0	0	0	449	582	
9	0	0	0	0	408	582	
10	0	0	0	0	470	582	
11	0	0	0	0	519	582	
12	0	0	0	0	516	582	
13	0	0	0	0	537	581	
14	0	0	0	0	555	582	
15	0	0	0	0	519	582	
0	0	0	0	0	411	581	
1	0	0	0	0	477	582	
2	0	0	0	0	596	581	
3	0	0	0	0	862	582	
4	0	0	0	0	979	582	
5	0	0	0	0	950	581	
6	0	0	0	0	808	582	
7	0	0	0	0	725	582	
8	0	0	0	0	656	582	
9	0	0	0	0	577	582	
10	0	0	0	0	499	581	
11	0	0	0	0	384	581	
12	0	0	0	0	337	581	
13	0	0	0	0	465	582	
14	0	0	0	0	542	582	
15	0	0	0	0	503	582	
0	0	0	0	0	300	581	
1	0	0	0	0	224	581	
2	0	0	0	0	177	582	
3	0	0	0	0	159	581	
4	0	0	0	0	172	582	
5	0	0	0	0	214	582	
6	0	0	0	0	148	581	
7	0	0	0	0	44	582	
8	0	0	0	0	0	581	
9	0	0	0	0	0	582	
10	0	0	0	0	0	581	
11	0	0	0	0	0	581	
12	0	0	0	0	125	582	
13	0	0	0	0	401	581	
14	0	0	0	0	464	581	
15	0	0	0	0	583	582	
0	0	0	0	0	634	581	
1	0	0	0	0	593	582	
2	0	0	0	0	490	582	
3	0	0	0	0	407	581	
4	0	0	0	0	437	582	
5	0	0	0	0	535	582	
6	0	0	0	0	591	582	
7	0	0	0	0	609	582	
8	0	0	0	0	572	582	
9	0	0	0	0	647	582	
10	0	0	0	0	664	582	
11	0	0	0	0	615	582	
12	0	0	0	0	695	582	
13	0	0	0	0	704	582	
14	0	0	0	0	703	582	
15	0	0	0	0	641	582	
0	0	0	0	0	691	582	
1	0	0	0	0	704	582	
2	0	0	0	0	698	582	
3	0	0	0	0	732	582	
4	0	0	0	0	706	582	
5	0	0	0	0	670	582	
6	0	0	0	0	662	582	
7	0	0	0	0	624	582	
8	0	0	0	0	634	582	
9	0	0	0	0	579	582	
10	0	0	0	0	600	582	
11	0	0	0	0	617	582	
12	0	0	0	0	575	582	
13	0	0	0	0	595	582	
14	0	0	0	0	579	582	
15	0	0	0	0	537	582	
0	0	0	0	0	484	582	
1	0	0	0	0	543	582	
2	0	0	0	0	496	582	
3	0	0	0	0	498	581	
4	0	0	0	0	455	582	
5	0	0	0	0	499	582	
6	0	0	0	0	500	582	
7	0	0	0	0	492	581	
8	0	0	0	0	520	581	
9	0	0	0	0	474	582	
10	0	0	0	0	458	582	
11	0	0	0	0	445	582	
12	0	0	0	0	523	582	
13	0	0	0	0	493	582	
14	0	0	0	0	560	581	
15	0	0	0	0	514	581	
0	0	0	0	0	488	582	
1	0	0	0	0	516	581	
2	0	0	0	0	512	581	
3	0	0	0	0	516	581	
4	0	0	0	0	519	581	
5	0	0	0	0	549	581	
6	0	0	0	0	528	581	
7	0	0	0	0	514	581	
8	0	0	0	0	541	582	
9	0	0	0	0	570	581	
10	0	0	0	0	510	581	
11	0	0	0	0	548	581	
12	0	0	0	0	528	581	
13	0	0	0	0	531	581	
14	0	0	0	0	543	581	
15	0	0	0	0	530	581	
0	0	0	0	0	547	581	
1	0	0	0	0	556	581	
2	0	0	0	0	529	581	
3	0	0	0	0	555	581	
4	0	0	0	0	550	581	
5	0	0	0	0	553	581	
6	0	0	0	0	543	581	
7	0	0	0	0	552	581	
8	0	0	0	0	568	581	
9	0	0	0	0	583	581	
10	0	0	0	0	543	581	
11	0	0	0	0	600	581	
12	0	0	0	0	526	581	
13	0	0	0	0	545	581	
14	0	0	0	0	526	581	
15	0	0	0	0	472	581	
0	0	0	0	0	541	581	
1	0	0	0	0	526	581	
2	0	0	0	0	495	581	
3	0	0	0	0	543	581	
4	0	0	0	0	529	581	
5	0	0	0	0	483	581	
6	0	0	0	0	542	581	
7	0	0	0	0	522	581	
8	0	0	0	0	533	581	
9	0	0	0	0	707	581	
10	0	0	0	0	642	581	
11	0	0	0	0	649	581	
12	0	0	0	0	435	581	
13	0	0	0	0	457	581	
14	0	0	0	0	418	581	
15	0	0	0	0	405	581	
0	0	0	0	0	425	582	
1	0	0	0	0	414	581	
2	0	0	0	0	402	581	
3	0	0	0	0	409	581	
4	0	0	0	0	415	581	
5	0	0	0	0	409	581	
6	0	0	0	0	406	582	
7	0	0	0	0	389	581	
8	0	0	0	0	441	581	
9	0	0	0	0	446	581	
10	0	0	0	0	497	581	
11	0	0	0	0	463	581	
12	0	0	0	0	456	581	
13	0	0	0	0	481	581	
14	0	0	0	0	516	581	
15	0	0	0	0	516	581	
0	0	0	0	0	533	581	
1	0	0	0	0	527	581	
2	0	0	0	0	543	581	
3	0	0	0	0	538	581	
4	0	0	0	0	543	581	
5	0	0	0	0	536	581	
6	0	0	0	0	560	581	
7	0	0	0	0	539	581	
8	0	0	0	0	513	581	
9	0	0	0	0	510	581	
10	0	0	0	0	508	581	
11	0	0	0	0	486	581	
12	0	0	0	0	494	581	
13	0	0	0	0	495	581	
14	0	0	0	0	496	581	
15	0	0	0	0	518	581	
0	0	0	0	0	492	581	
1	0	0	0	0	513	581	
2	0	0	0	0	514	581	
3	0	0	0	0	545	581	
4	0	0	0	0	529	581	
5	0	0	0	0	486	581	
6	0	0	0	0	537	581	
7	0	0	0	0	528	581	
8	0	0	0	0	542	581	
9	0	0	0	0	533	581	
10	0	0	0	0	537	581	
11	0	0	0	0	499	581	
12	0	0	0	0	504	581	
13	0	0	0	0	548	581	
14	0	0	0	0	533	581	
15	0	0	0	0	530	581	
0	0	0	0	0	536	581	
1	0	0	0	0	537	581	
2	0	0	0	0	504	581	
3	0	0	0	0	558	581	
4	0	0	0	0	496	581	
5	0	0	0	0	524	581	
6	0	0	0	0	483	581	
7	0	0	0	0	550	581	
8	0	0	0	0	518	581	
9	0	0	0	0	511	581	
10	0	0	0	0	550	581	
11	0	0	0	0	526	581	
12	0	0	0	0	508	581	
13	0	0	0	0	534	581	
14	0	0	0	0	514	581	
15	0	0	0	0	500	581	
0	0	0	0	0	560	581	
1	0	0	0	0	496	581	
2	0	0	0	0	519	582	
3	0	0	0	0	527	581	
4	0	0	0	0	496	581	
5	0	0	0	0	529	581	
6	0	0	0	0	518	581	
7	0	0	0	0	532	581	
8	0	0	0	0	508	581	
9	0	0	0	0	520	582	
10	0	0	0	0	498	581	
11	0	0	0	0	508	582	
12	0	0	0	0	527	581	
13	0	0	0	0	524	581	
14	0	0	0	0	524	581	
15	0	0	0	0	539	581	
0	0	0	0	0	559	581	
1	0	0	0	0	513	581	
2	0	0	0	0	529	581	
3	0	0	0	0	499	582	
4	0	0	0	0	502	581	
5	0	0	0	0	510	582	
6	0	0	0	0	524	582	
7	0	0	0	0	521	581	
8	0	0	0	0	505	582	
9	0	0	0	0	489	581	
10	0	0	0	0	496	582	
11	0	0	0	0	504	581	
12	0	0	0	0	471	582	
13	0	0	0	0	487	582	
14	0	0	0	0	487	581	
15	0	0	0	0	581	581	
0	0	0	0	0	747	582	
1	0	0	0	0	685	581	
2	0	0	0	0	639	582	
3	0	0	0	0	560	582	
4	0	0	0	0	512	582	
5	0	0	0	0	554	581	
6	0	0	0	0	532	582	
7	0	0	0	0	537	582	
8	0	0	0	0	525	582	
9	0	0	0	0	553	582	
10	0	0	0	0	546	582	
11	0	0	0	0	517	582	
12	0	0	0	0	550	582	
13	0	0	0	0	541	581	
14	0	0	0	0	537	582	
15	0	0	0	0	493	581	
0	0	0	0	0	508	582	
1	0	0	0	0	455	582	
2	0	0	0	0	460	582	
3	0	0	0	0	475	582	
4	0	0	0	0	453	582	
5	0	0	0	0	484	581	
6	0	0	0	0	486	582	
7	0	0	0	0	470	581	
8	0	0	0	0	472	582	
9	0	0	0	0	526	582	
10	0	0	0	0	486	581	
11	0	0	0	0	537	582	
12	0	0	0	0	472	582	
13	0	0	0	0	543	582	
14	0	0	0	0	480	582	
15	0	0	0	0	532	582	
0	0	0	0	0	467	582	
1	0	0	0	0	454	582	
2	0	0	0	0	529	582	
3	0	0	0	0	467	582	
4	0	0	0	0	512	582	
5	0	0	0	0	557	582	
6	0	0	0	0	621	582	
7	0	0	0	0	658	582	
8	0	0	0	0	672	582	
9	0	0	0	0	625	581	
10	0	0	0	0	655	581	
11	0	0	0	0	625	581	
12	0	0	0	0	573	581	
13	0	0	0	0	598	580	
14	0	0	0	0	593	580	
15	0	0	0	0	585	579	
0	0	0	0	0	604	579	
1	0	0	0	0	579	579	
2	0	0	0	0	501	578	
3	0	0	0	0	476	578	
4	0	0	0	0	472	578	
5	0	0	0	0	411	577	
6	0	0	0	0	425	578	
7	0	0	0	0	401	577	
8	0	0	0	0	491	577	
9	0	0	0	0	386	578	
10	0	0	0	0	415	578	
11	0	0	0	0	356	579	
12	0	0	0	0	362	579	
13	0	0	0	0	303	579	
14	0	0	0	0	335	579	
15	0	0	0	0	357	579	
0	0	0	0	0	383	580	
1	0	0	0	0	336	580	
2	0	0	0	0	328	580	
3	0	0	0	0	318	580	
4	0	0	0	0	423	580	
5	0	0	0	0	398	581	
6	0	0	0	0	402	581	
7	0	0	0	0	382	581	
8	0	0	0	0	379	581	
9	0	0	0	0	403	581	
10	0	0	0	0	476	581	
11	0	0	0	0	477	581	
12	0	0	0	0	545	581	
13	0	0	0	0	598	582	
14	0	0	0	0	595	581	
15	0	0	0	0	587	582	
0	0	0	0	0	594	582	
1	0	0	0	0	571	582	
2	0	0	0	0	612	582	
3	0	0	0	0	603	581	
4	0	0	0	0	599	581	
5	0	0	0	0	586	581	
6	0	0	0	0	591	581	
7	0	0	0	0	577	581	
8	0	0	0	0	572	580	
9	0	0	0	0	548	580	
10	0	0	0	0	572	580	
11	0	0	0	0	568	580	
12	0	0	0	0	550	580	
13	0	0	0	0	551	580	
14	0	0	0	0	568	580	
15	0	0	0	0	532	580	
0	0	0	0	0	569	580	
1	0	0	0	0	528	580	
2	0	0	0	0	522	580	
3	0	0	0	0	505	580	
4	0	0	0	0	531	580	
5	0	0	0	0	497	580	
6	0	0	0	0	495	580	
7	0	0	0	0	516	580	
8	0	0	0	0	480	580	
9	0	0	0	0	508	580	
10	0	0	0	0	495	580	
11	0	0	0	0	501	580	
12	0	0	0	0	509	580	
13	0	0	0	0	572	580	
14	0	0	0	0	711	580	
15	0	0	0	0	662	580	
0	0	0	0	0	565	580	
1	0	0	0	0	457	580	
2	0	0	0	0	420	580	
3	0	0	0	0	436	580	
4	0	0	0	0	447	580	
5	0	0	0	0	450	580	
6	0	0	0	0	450	580	
7	0	0	0	0	425	580	
8	0	0	0	0	428	580	
9	0	0	0	0	439	580	
10	0	0	0	0	419	580	
11	0	0	0	0	455	580	
12	0	0	0	0	439	581	
13	0	0	0	0	445	580	
14	0	0	0	0	440	580	
15	0	0	0	0	459	581	
0	0	0	0	0	461	580	
1	0	0	0	0	474	581	
2	0	0	0	0	478	581	
3	0	0	0	0	461	581	
4	0	0	0	0	495	581	
5	0	0	0	0	529	581	
6	0	0	0	0	493	581	
7	0	0	0	0	505	581	
8	0	0	0	0	523	581	
9	0	0	0	0	486	581	
10	0	0	0	0	527	581	
11	0	0	0	0	520	581	
12	0	0	0	0	523	581	
13	0	0	0	0	506	581	
14	0	0	0	0	508	582	
15	0	0	0	0	527	581	
0	0	0	0	0	540	581	
1	0	0	0	0	532	582	
2	0	0	0	0	543	582	
3	0	0	0	0	513	582	
4	0	0	0	0	527	582	
5	0	0	0	0	493	582	
6	0	0	0	0	530	582	
7	0	0	0	0	513	582	
8	0	0	0	0	531	582	
9	0	0	0	0	559	582	
10	0	0	0	0	554	582	
11	0	0	0	0	563	582	
12	0	0	0	0	543	582	
13	0	0	0	0	554	582	
14	0	0	0	0	571	582	
15	0	0	0	0	535	582	
0	0	0	0	0	539	582	
1	0	0	0	0	494	582	
2	0	0	0	0	501	582	
3	0	0	0	0	528	582	
4	0	0	0	0	479	582	
5	0	0	0	0	511	582	
6	0	0	0	0	472	582	
7	0	0	0	0	486	582	
8	0	0	0	0	478	582	
9	0	0	0	0	435	582	
10	0	0	0	0	462	582	
11	0	0	0	0	504	582	
12	0	0	0	0	456	582	
13	0	0	0	0	481	582	
14	0	0	0	0	480	582	
15	0	0	0	0	483	582	
0	0	0	0	0	494	582	
1	0	0	0	0	491	583	
2	0	0	0	0	509	582	
3	0	0	0	0	474	582	
4	0	0	0	0	499	582	
5	0	0	0	0	478	583	
6	0	0	0	0	501	583	
7	0	0	0	0	504	582	
8	0	0	0	0	520	583	
9	0	0	0	0	495	583	
10	0	0	0	0	497	583	
11	0	0	0	0	526	583	
12	0	0	0	0	496	582	
13	0	0	0	0	512	583	
14	0	0	0	0	542	583	
15	0	0	0	0	503	582	
0	0	0	0	0	501	583	
1	0	0	0	0	526	583	
2	0	0	0	0	486	583	
3	0	0	0	0	531	583	
4	0	0	0	0	529	583	
5	0	0	0	0	527	583	
6	0	0	0	0	539	582	
7	0	0	0	0	542	583	
8	0	0	0	0	529	583	
9	0	0	0	0	497	583	
10	0	0	0	0	537	583	
11	0	0	0	0	535	583	
12	0	0	0	0	517	583	
13	0	0	0	0	520	583	
14	0	0	0	0	489	583	
15	0	0	0	0	507	583	
0	0	0	0	0	497	583	
1	0	0	0	0	500	583	
2	0	0	0	0	495	583	
3	0	0	0	0	514	583	
4	0	0	0	0	498	583	
5	0	0	0	0	485	583	
6	0	0	0	0	501	583	
7	0	0	0	0	521	583	
8	0	0	0	0	585	583	
9	0	0	0	0	689	583	
10	0	0	0	0	644	583	
11	0	0	0	0	474	583	
12	0	0	0	0	477	583	
13	0	0	0	0	483	583	
14	0	0	0	0	506	583	
15	0	0	0	0	511	583	
0	0	0	0	0	472	583	
1	0	0	0	0	488	583	
2	0	0	0	0	481	583	
3	0	0	0	0	508	583	
4	0	0	0	0	501	583	
5	0	0	0	0	493	583	
6	0	0	0	0	543	583	
7	0	0	0	0	462	583	
8	0	0	0	0	498	583	
9	0	0	0	0	483	583	
10	0	0	0	0	488	583	
11	0	0	0	0	521	583	
12	0	0	0	0	525	583	
13	0	0	0	0	543	583	
14	0	0	0	0	499	583	
15	0	0	0	0	526	583	
0	0	0	0	0	505	583	
1	0	0	0	0	488	583	
2	0	0	0	0	497	583	
3	0	0	0	0	506	583	
4	0	0	0	0	541	583	
5	0	0	0	0	438	583	
6	0	0	0	0	521	583	
7	0	0	0	0	481	583	
8	0	0	0	0	455	583	
9	0	0	0	0	458	583	
10	0	0	0	0	460	583	
11	0	0	0	0	415	583	
12	0	0	0	0	454	583	
13	0	0	0	0	435	583	
14	0	0	0	0	431	583	
15	0	0	0	0	481	583	
0	0	0	0	0	475	583	
1	0	0	0	0	455	583	
2	0	0	0	0	475	583	
3	0	0	0	0	507	583	
4	0	0	0	0	476	583	
5	0	0	0	0	493	583	
6	0	0	0	0	508	583	
7	0	0	0	0	531	583	
8	0	0	0	0	546	583	
9	0	0	0	0	515	583	
10	0	0	0	0	542	583	
11	0	0	0	0	553	583	
12	0	0	0	0	516	583	
13	0	0	0	0	527	583	
14	0	0	0	0	489	583	
15	0	0	0	0	528	583	
0	0	0	0	0	439	584	
1	0	0	0	0	455	583	
2	0	0	0	0	455	584	
3	0	0	0	0	471	584	
4	0	0	0	0	470	584	
5	0	0	0	0	506	584	
6	0	0	0	0	496	583	
7	0	0	0	0	499	584	
8	0	0	0	0	511	583	
9	0	0	0	0	520	583	
10	0	0	0	0	545	584	
11	0	0	0	0	528	583	
12	0	0	0	0	525	583	
13	0	0	0	0	551	583	
14	0	0	0	0	593	583	
15	0	0	0	0	565	584	
0	0	0	0	0	561	583	
1	0	0	0	0	537	583	
2	0	0	0	0	616	583	
3	0	0	0	0	587	583	
4	0	0	0	0	608	584	
5	0	0	0	0	623	583	
6	0	0	0	0	564	584	
7	0	0	0	0	568	583	
8	0	0	0	0	535	583	
9	0	0	0	0	576	584	
10	0	0	0	0	582	583	
11	0	0	0	0	731	583	
12	0	0	0	0	796	583	
13	0	0	0	0	686	583	
14	0	0	0	0	612	583	
15	0	0	0	0	553	583	
0	0	0	0	0	453	583	
1	0	0	0	0	432	583	
2	0	0	0	0	421	583	
3	0	0	0	0	423	583	
4	0	0	0	0	419	583	
5	0	0	0	0	461	584	
6	0	0	0	0	438	584	
7	0	0	0	0	451	583	
8	0	0	0	0	417	584	
9	0	0	0	0	457	583	
10	0	0	0	0	432	584	
11	0	0	0	0	419	584	
12	0	0	0	0	450	584	
13	0	0	0	0	429	584	
14	0	0	0	0	467	584	
15	0	0	0	0	460	584	
0	0	0	0	0	452	584	
1	0	0	0	0	444	584	
2	0	0	0	0	500	584	
3	0	0	0	0	652	584	
4	0	0	0	0	628	584	
5	0	0	0	0	494	584	
6	0	0	0	0	475	584	
7	0	0	0	0	462	584	
8	0	0	0	0	430	584	
9	0	0	0	0	464	584	
10	0	0	0	0	454	584	
11	0	0	0	0	481	584	
12	0	0	0	0	492	584	
13	0	0	0	0	531	584	
14	0	0	0	0	531	584	
15	0	0	0	0	574	584	
0	0	0	0	0	577	584	
1	0	0	0	0	585	584	
2	0	0	0	0	596	584	
3	0	0	0	0	587	584	
4	0	0	0	0	614	584	
5	0	0	0	0	583	584	
6	0	0	0	0	567	584	
7	0	0	0	0	618	584	
8	0	0	0	0	598	584	
9	0	0	0	0	566	584	
10	0	0	0	0	560	584	
11	0	0	0	0	580	584	
12	0	0	0	0	546	584	
13	0	0	0	0	535	584	
14	0	0	0	0	585	584	
15	0	0	0	0	579	584	
0	0	0	0	0	552	584	
1	0	0	0	0	496	584	
2	0	0	0	0	543	584	
3	0	0	0	0	502	584	
4	0	0	0	0	492	584	
5	0	0	0	0	548	584	
6	0	0	0	0	548	584	
7	0	0	0	0	511	584	
8	0	0	0	0	531	584	
9	0	0	0	0	500	584	
10	0	0	0	0	512	584	
11	0	0	0	0	489	584	
12	0	0	0	0	504	584	
13	0	0	0	0	543	584	
14	0	0	0	0	526	584	
15	0	0	0	0	532	584	
0	0	0	0	0	501	584	
1	0	0	0	0	493	584	
2	0	0	0	0	518	584	
3	0	0	0	0	498	584	
4	0	0	0	0	488	584	
5	0	0	0	0	548	584	
6	0	0	0	0	576	584	
7	0	0	0	0	512	584	
8	0	0	0	0	554	584	
9	0	0	0	0	542	584	
10	0	0	0	0	481	584	
11	0	0	0	0	480	584	
12	0	0	0	0	488	584	
13	0	0	0	0	560	584	
14	0	0	0	0	471	584	
15	0	0	0	0	557	584	
0	0	0	0	0	513	584	
1	0	0	0	0	477	584	
2	0	0	0	0	456	584	
3	0	0	0	0	480	584	
4	0	0	0	0	499	584	
5	0	0	0	0	479	584	
6	0	0	0	0	520	584	
7	0	0	0	0	478	584	
8	0	0	0	0	492	584	
9	0	0	0	0	478	584	
10	0	0	0	0	503	584	
11	0	0	0	0	491	584	
12	0	0	0	0	524	584	
13	0	0	0	0	527	584	
14	0	0	0	0	524	584	
15	0	0	0	0	537	584	
0	0	0	0	0	453	584	
1	0	0	0	0	531	584	
2	0	0	0	0	491	584	
3	0	0	0	0	521	584	
4	0	0	0	0	473	584	
5	0	0	0	0	559	584	
6	0	0	0	0	491	584	
7	0	0	0	0	508	584	
8	0	0	0	0	455	584	
9	0	0	0	0	553	584	
10	0	0	0	0	504	584	
11	0	0	0	0	534	584	
12	0	0	0	0	423	584	
13	0	0	0	0	556	584	
14	0	0	0	0	510	584	
15	0	0	0	0	525	584	
0	0	0	0	0	506	584	
1	0	0	0	0	567	584	
2	0	0	0	0	486	584	
3	0	0	0	0	469	584	
4	0	0	0	0	438	584	
5	0	0	0	0	481	584	
6	0	0	0	0	508	585	
7	0	0	0	0	472	585	
8	0	0	0	0	527	585	
9	0	0	0	0	465	585	
10	0	0	0	0	510	585	
11	0	0	0	0	492	585	
12	0	0	0	0	500	585	
13	0	0	0	0	626	585	
14	0	0	0	0	702	585	
15	0	0	0	0	674	585	
0	0	0	0	0	456	585	
1	0	0	0	0	491	585	
2	0	0	0	0	481	585	
3	0	0	0	0	473	585	
4	0	0	0	0	462	585	
5	0	0	0	0	446	585	
6	0	0	0	0	504	585	
7	0	0	0	0	438	585	
8	0	0	0	0	459	585	
9	0	0	0	0	490	585	
10	0	0	0	0	496	585	
11	0	0	0	0	498	585	
12	0	0	0	0	420	585	
13	0	0	0	0	542	585	
14	0	0	0	0	518	585	
15	0	0	0	0	505	585	
0	0	0	0	0	524	585	
1	0	0	0	0	507	585	
2	0	0	0	0	568	585	
3	0	0	0	0	545	585	
4	0	0	0	0	491	585	
5	0	0	0	0	515	585	
6	0	0	0	0	514	585	
7	0	0	0	0	564	585	
8	0	0	0	0	549	585	
9	0	0	0	0	499	585	
10	0	0	0	0	564	585	
11	0	0	0	0	551	585	
12	0	0	0	0	492	585	
13	0	0	0	0	464	585	
14	0	0	0	0	517	585	
15	0	0	0	0	446	585	
0	0	0	0	0	533	585	
1	0	0	0	0	450	585	
2	0	0	0	0	520	585	
3	0	0	0	0	408	585	
4	0	0	0	0	470	585	
5	0	0	0	0	523	585	
6	0	0	0	0	542	585	
7	0	0	0	0	484	585	
8	0	0	0	0	523	585	
9	0	0	0	0	495	585	
10	0	0	0	0	478	585	
11	0	0	0	0	540	585	
12	0	0	0	0	469	585	
13	0	0	0	0	523	585	
14	0	0	0	0	508	585	
15	0	0	0	0	519	585	
0	0	0	0	0	537	585	
1	0	0	0	0	493	585	
2	0	0	0	0	512	586	
3	0	0	0	0	497	585	
4	0	0	0	0	457	586	
5	0	0	0	0	552	586	
6	0	0	0	0	504	586	
7	0	0	0	0	489	586	
8	0	0	0	0	499	586	
9	0	0	0	0	510	586	
10	0	0	0	0	512	586	
11	0	0	0	0	531	586	
12	0	0	0	0	529	586	
13	0	0	0	0	494	586	
14	0	0	0	0	507	586	
15	0	0	0	0	555	586	
0	0	0	0	0	501	586	
1	0	0	0	0	451	586	
2	0	0	0	0	574	586	
3	0	0	0	0	500	586	
4	0	0	0	0	527	586	
5	0	0	0	0	529	586	
6	0	0	0	0	462	586	
7	0	0	0	0	486	586	
8	0	0	0	0	511	586	
9	0	0	0	0	545	586	
10	0	0	0	0	489	586	
11	0	0	0	0	524	586	
12	0	0	0	0	547	586	
13	0	0	0	0	412	586	
14	0	0	0	0	511	586	
15	0	0	0	0	580	586	
0	0	0	0	0	522	586	
1	0	0	0	0	504	586	
2	0	0	0	0	511	587	
3	0	0	0	0	531	586	
4	0	0	0	0	472	586	
5	0	0	0	0	522	587	
6	0	0	0	0	535	586	
7	0	0	0	0	491	587	
8	0	0	0	0	564	587	
9	0	0	0	0	489	587	
10	0	0	0	0	523	587	
11	0	0	0	0	459	586	
12	0	0	0	0	522	587	
13	0	0	0	0	468	587	
14	0	0	0	0	515	587	
15	0	0	0	0	504	587	
0	0	0	0	0	503	587	
1	0	0	0	0	514	587	
2	0	0	0	0	508	587	
3	0	0	0	0	485	587	
4	0	0	0	0	428	587	
5	0	0	0	0	553	587	
6	0	0	0	0	753	587	
7	0	0	0	0	636	587	
8	0	0	0	0	545	587	
9	0	0	0	0	470	587	
10	0	0	0	0	431	587	
11	0	0	0	0	459	587	
12	0	0	0	0	479	587	
13	0	0	0	0	464	587	
14	0	0	0	0	534	587	
15	0	0	0	0	525	587	
0	0	0	0	0	494	587	
1	0	0	0	0	432	587	
2	0	0	0	0	490	587	
3	0	0	0	0	488	587	
4	0	0	0	0	531	587	
5	0	0	0	0	500	588	
6	0	0	0	0	489	588	
7	0	0	0	0	492	588	
8	0	0	0	0	475	588	
9	0	0	0	0	561	588	
10	0	0	0	0	510	588	
11	0	0	0	0	522	588	
12	0	0	0	0	545	588	
13	0	0	0	0	499	588	
14	0	0	0	0	557	588	
15	0	0	0	0	560	588	
0	0	0	0	0	558	588	
1	0	0	0	0	559	588	
2	0	0	0	0	508	588	
3	0	0	0	0	525	588	
4	0	0	0	0	493	588	
5	0	0	0	0	509	588	
6	0	0	0	0	495	588	
7	0	0	0	0	468	588	
8	0	0	0	0	485	588	
9	0	0	0	0	483	588	
10	0	0	0	0	479	588	
11	0	0	0	0	496	588	
12	0	0	0	0	483	589	
13	0	0	0	0	444	588	
14	0	0	0	0	475	589	
15	0	0	0	0	538	588	
0	0	0	0	0	477	589	
1	0	0	0	0	480	589	
2	0	0	0	0	528	589	
3	0	0	0	0	484	589	
4	0	0	0	0	536	589	
5	0	0	0	0	497	589	
6	0	0	0	0	457	589	
7	0	0	0	0	557	589	
8	0	0	0	0	522	589	
9	0	0	0	0	476	589	
10	0	0	0	0	504	589	
11	0	0	0	0	518	589	
12	0	0	0	0	539	589	
13	0	0	0	0	423	589	
14	0	0	0	0	472	589	
15	0	0	0	0	576	590	
0	0	0	0	0	534	590	
1	0	0	0	0	474	590	
2	0	0	0	0	483	590	
3	0	0	0	0	559	590	
4	0	0	0	0	497	590	
5	0	0	0	0	488	590	
6	0	0	0	0	552	590	
7	0	0	0	0	525	590	
8	0	0	0	0	516	590	
9	0	0	0	0	564	590	
10	0	0	0	0	526	590	
11	0	0	0	0	480	590	
12	0	0	0	0	504	590	
13	0	0	0	0	543	590	
14	0	0	0	0	455	590	
15	0	0	0	0	531	590	
0	0	0	0	0	503	590	
1	0	0	0	0	588	591	
2	0	0	0	0	512	590	
3	0	0	0	0	569	590	
4	0	0	0	0	512	591	
5	0	0	0	0	474	590	
6	0	0	0	0	510	591	
7	0	0	0	0	509	591	
8	0	0	0	0	535	591	
9	0	0	0	0	504	591	
10	0	0	0	0	523	591	
11	0	0	0	0	500	591	
12	0	0	0	0	504	591	
13	0	0	0	0	506	591	
14	0	0	0	0	558	591	
15	0	0	0	0	543	591	
0	0	0	0	0	510	591	
1	0	0	0	0	494	591	
2	0	0	0	0	565	591	
3	0	0	0	0	523	591	
4	0	0	0	0	519	591	
5	0	0	0	0	522	591	
6	0	0	0	0	493	591	
7	0	0	0	0	477	591	
8	0	0	0	0	535	591	
9	0	0	0	0	463	591	
10	0	0	0	0	528	591	
11	0	0	0	0	465	591	
12	0	0	0	0	519	591	
13	0	0	0	0	543	592	
14	0	0	0	0	515	591	
15	0	0	0	0	459	592	
0	0	0	0	0	654	592	
1	0	0	0	0	733	592	
2	0	0	0	0	660	592	
3	0	0	0	0	477	592	
4	0	0	0	0	438	592	
5	0	0	0	0	477	592	
6	0	0	0	0	470	592	
7	0	0	0	0	472	592	
8	0	0	0	0	425	592	
9	0	0	0	0	549	592	
10	0	0	0	0	431	592	
11	0	0	0	0	504	592	
12	0	0	0	0	464	592	
13	0	0	0	0	459	592	
14	0	0	0	0	493	593	
15	0	0	0	0	497	592	
0	0	0	0	0	440	592	
1	0	0	0	0	589	593	
2	0	0	0	0	502	593	
3	0	0	0	0	483	593	
4	0	0	0	0	553	593	
5	0	0	0	0	460	593	
6	0	0	0	0	575	593	
7	0	0	0	0	535	593	
8	0	0	0	0	506	593	
9	0	0	0	0	520	593	
10	0	0	0	0	559	593	
11	0	0	0	0	489	593	
12	0	0	0	0	560	593	
13	0	0	0	0	463	593	
14	0	0	0	0	578	593	
15	0	0	0	0	531	593	
0	0	0	0	0	417	593	
1	0	0	0	0	474	593	
2	0	0	0	0	485	593	
3	0	0	0	0	473	593	
4	0	0	0	0	498	593	
5	0	0	0	0	441	594	
6	0	0	0	0	529	593	
7	0	0	0	0	449	594	
8	0	0	0	0	460	594	
9	0	0	0	0	517	594	
10	0	0	0	0	534	594	
11	0	0	0	0	459	594	
12	0	0	0	0	537	594	
13	0	0	0	0	521	594	
14	0	0	0	0	469	594	
15	0	0	0	0	559	594	
0	0	0	0	0	529	594	
1	0	0	0	0	499	594	
2	0	0	0	0	486	594	
3	0	0	0	0	470	594	
4	0	0	0	0	532	594	
5	0	0	0	0	520	594	
6	0	0	0	0	480	595	
7	0	0	0	0	516	595	
8	0	0	0	0	473	594	
9	0	0	0	0	579	595	
10	0	0	0	0	510	595	
11	0	0	0	0	457	595	
12	0	0	0	0	526	595	
13	0	0	0	0	563	595	
14	0	0	0	0	560	595	
15	0	0	0	0	476	595	
0	0	0	0	0	478	595	
1	0	0	0	0	521	595	
2	0	0	0	0	600	595	
3	0	0	0	0	497	595	
4	0	0	0	0	460	595	
5	0	0	0	0	518	595	
6	0	0	0	0	530	595	
7	0	0	0	0	484	595	
8	0	0	0	0	478	595	
9	0	0	0	0	584	595	
10	0	0	0	0	464	595	
11	0	0	0	0	537	595	
12	0	0	0	0	511	595	
13	0	0	0	0	498	596	
14	0	0	0	0	501	595	
15	0	0	0	0	539	595	
0	0	0	0	0	501	596	
1	0	0	0	0	512	595	
2	0	0	0	0	489	596	
3	0	0	0	0	494	595	
4	0	0	0	0	519	596	
5	0	0	0	0	540	596	
6	0	0	0	0	497	596	
7	0	0	0	0	514	596	
8	0	0	0	0	547	596	
9	0	0	0	0	488	596	
10	0	0	0	0	460	596	
11	0	0	0	0	467	596	
12	0	0	0	0	498	596	
13	0	0	0	0	568	596	
14	0	0	0	0	524	596	
15	0	0	0	0	475	596	
0	0	0	0	0	529	596	
1	0	0	0	0	507	596	
2	0	0	0	0	530	596	
3	0	0	0	0	546	596	
4	0	0	0	0	522	596	
5	0	0	0	0	527	596	
6	0	0	0	0	483	596	
7	0	0	0	0	599	596	
8	0	0	0	0	667	596	
9	0	0	0	0	636	596	
10	0	0	0	0	483	596	
11	0	0	0	0	435	597	
12	0	0	0	0	359	596	
13	0	0	0	0	382	596	
14	0	0	0	0	426	597	
15	0	0	0	0	532	597	
0	0	0	0	0	532	597	
1	0	0	0	0	506	597	
2	0	0	0	0	509	597	
3	0	0	0	0	474	597	
4	0	0	0	0	527	597	
5	0	0	0	0	493	597	
6	0	0	0	0	481	597	
7	0	0	0	0	512	597	
8	0	0	0	0	525	597	
9	0	0	0	0	479	597	
10	0	0	0	0	475	597	
11	0	0	0	0	495	597	
12	0	0	0	0	494	597	
13	0	0	0	0	492	598	
14	0	0	0	0	515	598	
15	0	0	0	0	524	598	
0	0	0	0	0	519	597	
1	0	0	0	0	527	598	
2	0	0	0	0	476	598	
3	0	0	0	0	515	598	
4	0	0	0	0	531	598	
5	0	0	0	0	455	598	
6	0	0	0	0	515	598	
7	0	0	0	0	490	598	
8	0	0	0	0	480	598	
9	0	0	0	0	432	598	
10	0	0	0	0	487	598	
11	0	0	0	0	480	598	
12	0	0	0	0	486	598	
13	0	0	0	0	446	598	
14	0	0	0	0	500	598	
15	0	0	0	0	498	598	
0	0	0	0	0	500	598	
1	0	0	0	0	485	598	
2	0	0	0	0	483	598	
3	0	0	0	0	495	598	
4	0	0	0	0	535	598	
5	0	0	0	0	499	598	
6	0	0	0	0	495	598	
7	0	0	0	0	530	598	
8	0	0	0	0	505	599	
9	0	0	0	0	491	598	
10	0	0	0	0	529	599	
11	0	0	0	0	513	598	
12	0	0	0	0	488	598	
13	0	0	0	0	521	599	
14	0	0	0	0	530	599	
15	0	0	0	0	508	599	
0	0	0	0	0	503	599	
1	0	0	0	0	525	599	
2	0	0	0	0	521	599	
3	0	0	0	0	522	599	
4	0	0	0	0	504	599	
5	0	0	0	0	512	599	
6	0	0	0	0	515	599	
7	0	0	0	0	533	599	
8	0	0	0	0	522	599	
9	0	0	0	0	510	599	
10	0	0	0	0	524	599	
11	0	0	0	0	547	599	
12	0	0	0	0	522	599	
13	0	0	0	0	504	599	
14	0	0	0	0	529	599	
15	0	0	0	0	530	599	
0	0	0	0	0	530	599	
1	0	0	0	0	521	599	
2	0	0	0	0	496	599	
3	0	0	0	0	529	599	
4	0	0	0	0	515	599	
5	0	0	0	0	523	599	
6	0	0	0	0	524	599	
7	0	0	0	0	489	599	
8	0	0	0	0	515	599	
9	0	0	0	0	534	599	
10	0	0	0	0	513	599	
11	0	0	0	0	526	599	
12	0	0	0	0	507	599	
13	0	0	0	0	529	600	
14	0	0	0	0	509	599	
15	0	0	0	0	521	600	
0	0	0	0	0	551	600	
1	0	0	0	0	510	599	
2	0	0	0	0	502	600	
3	0	0	0	0	532	600	
4	0	0	0	0	521	600	
5	0	0	0	0	528	600	
6	0	0	0	0	513	600	
7	0	0	0	0	533	600	
8	0	0	0	0	505	600	
9	0	0	0	0	494	600	
10	0	0	0	0	496	600	
11	0	0	0	0	508	600	
12	0	0	0	0	493	600	
13	0	0	0	0	477	600	
14	0	0	0	0	541	600	
15	0	0	0	0	486	600	
0	0	0	0	0	492	600	
1	0	0	0	0	517	600	
2	0	0	0	0	524	600	
3	0	0	0	0	570	600	
4	0	0	0	0	721	600	
5	0	0	0	0	690	600	
6	0	0	0	0	538	600	
7	0	0	0	0	468	600	
8	0	0	0	0	444	600	
9	0	0	0	0	483	600	
10	0	0	0	0	458	600	
11	0	0	0	0	476	600	
12	0	0	0	0	471	600	
13	0	0	0	0	479	600	
14	0	0	0	0	474	600	
15	0	0	0	0	479	600	
0	0	0	0	0	491	600	
1	0	0	0	0	499	600	
2	0	0	0	0	498	600	
3	0	0	0	0	498	600	
4	0	0	0	0	512	600	
5	0	0	0	0	507	600	
6	0	0	0	0	498	600	
7	0	0	0	0	515	600	
8	0	0	0	0	521	600	
9	0	0	0	0	522	600	
10	0	0	0	0	531	600	
11	0	0	0	0	533	600	
12	0	0	0	0	545	600	
13	0	0	0	0	507	600	
14	0	0	0	0	517	600	
15	0	0	0	0	526	600	
0	0	0	0	0	541	600	
1	0	0	0	0	536	600	
2	0	0	0	0	524	600	
3	0	0	0	0	499	600	
4	0	0	0	0	498	600	
5	0	0	0	0	503	600	
6	0	0	0	0	453	600	
7	0	0	0	0	482	600	
8	0	0	0	0	499	600	
9	0	0	0	0	508	600	
10	0	0	0	0	489	600	
11	0	0	0	0	462	600	
12	0	0	0	0	500	600	
13	0	0	0	0	482	600	
14	0	0	0	0	504	600	
15	0	0	0	0	527	600	
0	0	0	0	0	517	600	
1	0	0	0	0	504	600	
2	0	0	0	0	500	600	
3	0	0	0	0	497	600	
4	0	0	0	0	520	600	
5	0	0	0	0	507	600	
6	0	0	0	0	527	600	
7	0	0	0	0	507	600	
8	0	0	0	0	499	600	
9	0	0	0	0	509	601	
10	0	0	0	0	491	600	
11	0	0	0	0	524	601	
12	0	0	0	0	515	600	
13	0	0	0	0	499	601	
14	0	0	0	0	523	600	
15	0	0	0	0	519	600	
0	0	0	0	0	505	601	
1	0	0	0	0	519	600	
2	0	0	0	0	511	600	
3	0	0	0	0	517	600	
4	0	0	0	0	471	600	
5	0	0	0	0	513	600	
6	0	0	0	0	497	600	
7	0	0	0	0	517	600	
8	0	0	0	0	518	600	
9	0	0	0	0	506	601	
10	0	0	0	0	517	600	
11	0	0	0	0	503	600	
12	0	0	0	0	507	601	
13	0	0	0	0	535	601	
14	0	0	0	0	513	600	
15	0	0	0	0	510	601	
0	0	0	0	0	500	601	
1	0	0	0	0	516	601	
2	0	0	0	0	513	601	
3	0	0	0	0	518	601	
4	0	0	0	0	534	601	
5	0	0	0	0	501	601	
6	0	0	0	0	537	601	
7	0	0	0	0	521	601	
8	0	0	0	0	529	601	
9	0	0	0	0	497	601	
10	0	0	0	0	508	601	
11	0	0	0	0	513	601	
12	0	0	0	0	496	601	
13	0	0	0	0	517	601	
14	0	0	0	0	499	601	
15	0	0	0	0	513	601	
0	0	0	0	0	516	601	
1	0	0	0	0	503	601	
2	0	0	0	0	524	601	
3	0	0	0	0	521	601	
4	0	0	0	0	508	601	
5	0	0	0	0	530	601	
6	0	0	0	0	486	601	
7	0	0	0	0	512	601	
8	0	0	0	0	496	601	
9	0	0	0	0	523	601	
10	0	0	0	0	454	601	
11	0	0	0	0	503	601	
12	0	0	0	0	467	601	
13	0	0	0	0	490	601	
14	0	0	0	0	520	601	
15	0	0	0	0	498	601	
0	0	0	0	0	522	601	
1	0	0	0	0	534	601	
2	0	0	0	0	582	601	
3	0	0	0	0	694	601	
4	0	0	0	0	640	601	
5	0	0	0	0	504	601	
6	0	0	0	0	456	601	
7	0	0	0	0	459	601	
8	0	0	0	0	413	601	
9	0	0	0	0	416	601	
10	0	0	0	0	429	601	
11	0	0	0	0	439	601	
12	0	0	0	0	419	601	
13	0	0	0	0	463	601	
14	0	0	0	0	453	601	
15	0	0	0	0	560	601	
0	0	0	0	0	527	601	
1	0	0	0	0	550	601	
2	0	0	0	0	554	601	
3	0	0	0	0	588	601	
4	0	0	0	0	565	601	
5	0	0	0	0	569	601	
6	0	0	0	0	540	601	
7	0	0	0	0	544	601	
8	0	0	0	0	585	601	
9	0	0	0	0	521	601	
10	0	0	0	0	541	601	
11	0	0	0	0	526	601	
12	0	0	0	0	540	601	
13	0	0	0	0	557	601	
14	0	0	0	0	575	601	
15	0	0	0	0	571	601	
0	0	0	0	0	487	601	
1	0	0	0	0	482	601	
2	0	0	0	0	435	601	
3	0	0	0	0	485	601	
4	0	0	0	0	492	601	
5	0	0	0	0	522	601	
6	0	0	0	0	451	601	
7	0	0	0	0	483	601	
8	0	0	0	0	506	601	
9	0	0	0	0	505	601	
10	0	0	0	0	521	601	
11	0	0	0	0	544	601	
12	0	0	0	0	550	601	
13	0	0	0	0	547	601	
14	0	0	0	0	540	601	
15	0	0	0	0	512	601	
0	0	0	0	0	499	601	
1	0	0	0	0	512	601	
2	0	0	0	0	486	601	
3	0	0	0	0	508	601	
4	0	0	0	0	552	601	
5	0	0	0	0	471	601	
6	0	0	0	0	517	601	
7	0	0	0	0	487	601	
8	0	0	0	0	527	601	
9	0	0	0	0	491	601	
10	0	0	0	0	536	601	
11	0	0	0	0	528	601	
12	0	0	0	0	507	601	
13	0	0	0	0	492	601	
14	0	0	0	0	488	601	
15	0	0	0	0	444	601	
0	0	0	0	0	515	601	
1	0	0	0	0	438	601	
2	0	0	0	0	408	601	
3	0	0	0	0	381	601	
4	0	0	0	0	415	601	
5	0	0	0	0	447	600	
6	0	0	0	0	374	600	
7	0	0	0	0	374	601	
8	0	0	0	0	393	601	
9	0	0	0	0	406	600	
10	0	0	0	0	460	600	
11	0	0	0	0	488	600	
12	0	0	0	0	435	600	
13	0	0	0	0	528	600	
14	0	0	0	0	474	600	
15	0	0	0	0	554	600	
0	0	0	0	0	521	600	
1	0	0	0	0	531	600	
2	0	0	0	0	590	600	
3	0	0	0	0	578	600	
4	0	0	0	0	592	600	
5	0	0	0	0	678	600	
6	0	0	0	0	632	600	
7	0	0	0	0	673	600	
8	0	0	0	0	664	600	
9	0	0	0	0	667	600	
10	0	0	0	0	583	600	
11	0	0	0	0	587	600	
12	0	0	0	0	611	600	
13	0	0	0	0	607	600	
14	0	0	0	0	566	600	
15	0	0	0	0	556	600	
0	0	0	0	0	585	600	
1	0	0	0	0	502	600	
2	0	0	0	0	531	600	
3	0	0	0	0	503	600	
4	0	0	0	0	448	600	
5	0	0	0	0	491	600	
6	0	0	0	0	476	600	
7	0	0	0	0	445	600	
8	0	0	0	0	461	600	
9	0	0	0	0	480	600	
10	0	0	0	0	467	600	
11	0	0	0	0	482	600	
12	0	0	0	0	601	600	
13	0	0	0	0	704	600	
14	0	0	0	0	612	600	
15	0	0	0	0	459	600	
0	0	0	0	0	500	600	
1	0	0	0	0	438	600	
2	0	0	0	0	438	600	
3	0	0	0	0	461	600	
4	0	0	0	0	473	600	
5	0	0	0	0	426	600	
6	0	0	0	0	465	600	
7	0	0	0	0	465	600	
8	0	0	0	0	475	600	
9	0	0	0	0	501	600	
10	0	0	0	0	505	600	
11	0	0	0	0	440	600	
12	0	0	0	0	567	600	
13	0	0	0	0	505	600	
14	0	0	0	0	474	600	
15	0	0	0	0	558	600	
0	0	0	0	0	470	600	
1	0	0	0	0	574	600	
2	0	0	0	0	522	600	
3	0	0	0	0	505	600	
4	0	0	0	0	551	600	
5	0	0	0	0	586	600	
6	0	0	0	0	540	600	
7	0	0	0	0	558	600	
8	0	0	0	0	590	600	
9	0	0	0	0	531	600	
10	0	0	0	0	502	600	
11	0	0	0	0	508	600	
12	0	0	0	0	511	600	
13	0	0	0	0	429	600	
14	0	0	0	0	495	600	
15	0	0	0	0	472	600	
0	0	0	0	0	438	601	
1	0	0	0	0	409	601	
2	0	0	0	0	488	600	
3	0	0	0	0	500	600	
4	0	0	0	0	524	600	
5	0	0	0	0	497	600	
6	0	0	0	0	463	600	
7	0	0	0	0	453	600	
8	0	0	0	0	374	601	
9	0	0	0	0	559	600	
10	0	0	0	0	434	601	
11	0	0	0	0	542	600	
12	0	0	0	0	471	600	
13	0	0	0	0	487	601	
14	0	0	0	0	513	600	
15	0	0	0	0	563	601	
0	0	0	0	0	481	600	
1	0	0	0	0	520	601	
2	0	0	0	0	519	601	
3	0	0	0	0	547	600	
4	0	0	0	0	511	601	
5	0	0	0	0	515	601	
6	0	0	0	0	519	601	
7	0	0	0	0	483	601	
8	0	0	0	0	536	600	
9	0	0	0	0	474	601	
10	0	0	0	0	436	601	
11	0	0	0	0	616	601	
12	0	0	0	0	437	601	
13	0	0	0	0	590	601	
14	0	0	0	0	526	601	
15	0	0	0	0	493	601	
0	0	0	0	0	567	600	
1	0	0	0	0	509	601	
2	0	0	0	0	456	601	
3	0	0	0	0	451	601	
4	0	0	0	0	590	601	
5	0	0	0	0	529	601	
6	0	0	0	0	417	601	
7	0	0	0	0	609	601	
8	0	0	0	0	471	601	
9	0	0	0	0	531	601	
10	0	0	0	0	536	601	
11	0	0	0	0	526	601	
12	0	0	0	0	545	601	
13	0	0	0	0	526	601	
14	0	0	0	0	519	601	
15	0	0	0	0	575	601	
0	0	0	0	0	567	601	
1	0	0	0	0	540	601	
2	0	0	0	0	619	601	
3	0	0	0	0	601	601	
4	0	0	0	0	464	601	
5	0	0	0	0	562	601	
6	0	0	0	0	528	601	
7	0	0	0	0	564	601	
8	0	0	0	0	558	601	
9	0	0	0	0	481	601	
10	0	0	0	0	527	601	
11	0	0	0	0	476	601	
12	0	0	0	0	504	601	
13	0	0	0	0	532	601	
14	0	0	0	0	456	601	
15	0	0	0	0	489	601	
0	0	0	0	0	517	601	
1	0	0	0	0	418	601	
2	0	0	0	0	482	601	
3	0	0	0	0	563	601	
4	0	0	0	0	689	601	
5	0	0	0	0	597	601	
6	0	0	0	0	559	601	
7	0	0	0	0	395	601	
8	0	0	0	0	589	601	
9	0	0	0	0	432	601	
10	0	0	0	0	391	601	
11	0	0	0	0	444	601	
12	0	0	0	0	426	601	
13	0	0	0	0	463	601	
14	0	0	0	0	417	601	
15	0	0	0	0	487	601	
0	0	0	0	0	461	601	
1	0	0	0	0	487	601	
2	0	0	0	0	400	601	
3	0	0	0	0	596	601	
4	0	0	0	0	522	601	
5	0	0	0	0	535	601	
6	0	0	0	0	575	601	
7	0	0	0	0	555	601	
8	0	0	0	0	539	601	
9	0	0	0	0	513	601	
10	0	0	0	0	562	601	
11	0	0	0	0	513	601	
12	0	0	0	0	488	601	
13	0	0	0	0	597	601	
14	0	0	0	0	502	601	
15	0	0	0	0	600	601	
0	0	0	0	0	531	601	
1	0	0	0	0	491	601	
2	0	0	0	0	516	601	
3	0	0	0	0	455	601	
4	0	0	0	0	500	601	
5	0	0	0	0	506	601	
6	0	0	0	0	473	601	
7	0	0	0	0	427	601	
8	0	0	0	0	525	601	
9	0	0	0	0	428	601	
10	0	0	0	0	535	601	
11	0	0	0	0	446	601	
12	0	0	0	0	526	601	
13	0	0	0	0	500	601	
14	0	0	0	0	438	601	
15	0	0	0	0	463	601	
0	0	0	0	0	535	601	
1	0	0	0	0	547	602	
2	0	0	0	0	504	601	
3	0	0	0	0	504	602	
4	0	0	0	0	537	601	
5	0	0	0	0	495	601	
6	0	0	0	0	472	601	
7	0	0	0	0	571	601	
8	0	0	0	0	545	602	
9	0	0	0	0	487	602	
10	0	0	0	0	454	602	
11	0	0	0	0	483	602	
12	0	0	0	0	593	602	
13	0	0	0	0	427	602	
14	0	0	0	0	505	602	
15	0	0	0	0	560	602	
0	0	0	0	0	498	602	
1	0	0	0	0	488	602	
2	0	0	0	0	486	602	
3	0	0	0	0	534	602	
4	0	0	0	0	482	602	
5	0	0	0	0	566	602	
6	0	0	0	0	431	602	
7	0	0	0	0	530	602	
8	0	0	0	0	471	602	
9	0	0	0	0	539	602	
10	0	0	0	0	476	603	
11	0	0	0	0	490	602	
12	0	0	0	0	590	602	
13	0	0	0	0	507	603	
14	0	0	0	0	503	603	
15	0	0	0	0	529	603	
0	0	0	0	0	499	603	
1	0	0	0	0	525	603	
2	0	0	0	0	540	603	
3	0	0	0	0	551	603	
4	0	0	0	0	530	603	
5	0	0	0	0	436	603	
6	0	0	0	0	646	603	
7	0	0	0	0	522	603	
8	0	0	0	0	421	603	
9	0	0	0	0	517	603	
10	0	0	0	0	537	603	
11	0	0	0	0	519	603	
12	0	0	0	0	516	603	
13	0	0	0	0	366	603	
14	0	0	0	0	563	604	
15	0	0	0	0	467	603	
0	0	0	0	0	518	604	
1	0	0	0	0	512	604	
2	0	0	0	0	447	604	
3	0	0	0	0	655	604	
4	0	0	0	0	756	604	
5	0	0	0	0	607	604	
6	0	0	0	0	444	604	
7	0	0	0	0	540	604	
8	0	0	0	0	384	604	
9	0	0	0	0	467	604	
10	0	0	0	0	477	604	
11	0	0	0	0	465	604	
12	0	0	0	0	477	604	
13	0	0	0	0	438	604	
14	0	0	0	0	465	604	
15	0	0	0	0	501	605	
0	0	0	0	0	484	605	
1	0	0	0	0	443	604	
2	0	0	0	0	627	605	
3	0	0	0	0	585	605	
4	0	0	0	0	604	605	
5	0	0	0	0	607	605	
6	0	0	0	0	609	605	
7	0	0	0	0	589	605	
8	0	0	0	0	540	605	
9	0	0	0	0	571	605	
10	0	0	0	0	555	605	
11	0	0	0	0	582	606	
12	0	0	0	0	609	606	
13	0	0	0	0	575	606	
14	0	0	0	0	536	606	
15	0	0	0	0	543	606	
0	0	0	0	0	531	606	
1	0	0	0	0	499	606	
2	0	0	0	0	487	606	
3	0	0	0	0	514	606	
4	0	0	0	0	465	606	
5	0	0	0	0	366	606	
6	0	0	0	0	421	607	
7	0	0	0	0	375	606	
8	0	0	0	0	378	606	
9	0	0	0	0	332	606	
10	0	0	0	0	360	607	
11	0	0	0	0	409	607	
12	0	0	0	0	440	606	
13	0	0	0	0	421	607	
14	0	0	0	0	439	607	
15	0	0	0	0	435	607	
0	0	0	0	0	430	607	
1	0	0	0	0	457	607	
2	0	0	0	0	452	607	
3	0	0	0	0	431	607	
4	0	0	0	0	437	607	
5	0	0	0	0	486	607	
6	0	0	0	0	431	607	
7	0	0	0	0	456	607	
8	0	0	0	0	506	607	
9	0	0	0	0	469	607	
10	0	0	0	0	478	607	
11	0	0	0	0	478	606	
12	0	0	0	0	488	606	
13	0	0	0	0	463	606	
14	0	0	0	0	462	606	
15	0	0	0	0	498	606	
0	0	0	0	0	460	605	
1	0	0	0	0	520	606	
2	0	0	0	0	483	605	
3	0	0	0	0	475	605	
4	0	0	0	0	510	605	
5	0	0	0	0	467	605	
6	0	0	0	0	507	606	
7	0	0	0	0	483	606	
8	0	0	0	0	513	606	
9	0	0	0	0	491	606	
10	0	0	0	0	478	606	
11	0	0	0	0	511	606	
12	0	0	0	0	510	607	
13	0	0	0	0	505	607	
14	0	0	0	0	509	607	
15	0	0	0	0	521	607	
0	0	0	0	0	501	608	
1	0	0	0	0	523	608	
2	0	0	0	0	550	608	
3	0	0	0	0	532	608	
4	0	0	0	0	549	608	
5	0	0	0	0	529	608	
6	0	0	0	0	555	608	
7	0	0	0	0	555	608	
8	0	0	0	0	547	609	
9	0	0	0	0	574	609	
10	0	0	0	0	561	609	
11	0	0	0	0	559	609	
12	0	0	0	0	568	609	
13	0	0	0	0	592	609	
14	0	0	0	0	543	609	
15	0	0	0	0	586	609	
0	0	0	0	0	546	609	
1	0	0	0	0	563	609	
2	0	0	0	0	546	610	
3	0	0	0	0	533	609	
4	0	0	0	0	527	610	
5	0	0	0	0	527	610	
6	0	0	0	0	504	610	
7	0	0	0	0	548	610	
8	0	0	0	0	537	610	
9	0	0	0	0	518	610	
10	0	0	0	0	541	610	
11	0	0	0	0	531	610	
12	0	0	0	0	524	610	
13	0	0	0	0	590	610	
14	0	0	0	0	743	610	
15	0	0	0	0	740	610	
0	0	0	0	0	555	610	
1	0	0	0	0	468	610	
2	0	0	0	0	480	610	
3	0	0	0	0	487	611	
4	0	0	0	0	472	611	
5	0	0	0	0	484	611	
6	0	0	0	0	475	611	
7	0	0	0	0	504	611	
8	0	0	0	0	490	611	
9	0	0	0	0	504	611	
10	0	0	0	0	504	611	
11	0	0	0	0	521	611	
12	0	0	0	0	523	611	
13	0	0	0	0	515	611	
14	0	0	0	0	512	611	
15	0	0	0	0	548	611	
0	0	0	0	0	519	611	
1	0	0	0	0	543	611	
2	0	0	0	0	569	611	
3	0	0	0	0	563	611	
4	0	0	0	0	553	611	
5	0	0	0	0	552	612	
6	0	0	0	0	551	612	
7	0	0	0	0	536	612	
8	0	0	0	0	560	612	
9	0	0	0	0	534	612	
10	0	0	0	0	540	612	
11	0	0	0	0	515	612	
12	0	0	0	0	532	612	
13	0	0	0	0	501	612	
14	0	0	0	0	509	612	
15	0	0	0	0	499	612	
0	0	0	0	0	506	613	
1	0	0	0	0	473	613	
2	0	0	0	0	478	613	
3	0	0	0	0	509	613	
4	0	0	0	0	483	613	
5	0	0	0	0	523	613	
6	0	0	0	0	524	614	
7	0	0	0	0	516	613	
8	0	0	0	0	487	614	
9	0	0	0	0	588	614	
10	0	0	0	0	514	613	
11	0	0	0	0	493	614	
12	0	0	0	0	536	614	
13	0	0	0	0	543	614	
14	0	0	0	0	443	614	
15	0	0	0	0	542	614	
0	0	0	0	0	536	614	
1	0	0	0	0	472	614	
2	0	0	0	0	530	614	
3	0	0	0	0	503	614	
4	0	0	0	0	435	614	
5	0	0	0	0	482	615	
6	0	0	0	0	467	615	
7	0	0	0	0	492	615	
8	0	0	0	0	496	615	
9	0	0	0	0	507	615	
10	0	0	0	0	538	615	
11	0	0	0	0	513	615	
12	0	0	0	0	531	615	
13	0	0	0	0	512	615	
14	0	0	0	0	517	615	
15	0	0	0	0	547	615	
0	0	0	0	0	558	615	
1	0	0	0	0	530	615	
2	0	0	0	0	553	615	
3	0	0	0	0	497	615	
4	0	0	0	0	547	615	
5	0	0	0	0	514	615	
6	0	0	0	0	498	615	
7	0	0	0	0	548	615	
8	0	0	0	0	507	615	
9	0	0	0	0	510	615	
10	0	0	0	0	524	615	
11	0	0	0	0	472	615	
12	0	0	0	0	479	615	
13	0	0	0	0	474	615	
14	0	0	0	0	452	615	
15	0	0	0	0	437	615	
0	0	0	0	0	387	615	
1	0	0	0	0	415	616	
2	0	0	0	0	408	616	
3	0	0	0	0	370	616	
4	0	0	0	0	374	616	
5	0	0	0	0	412	616	
6	0	0	0	0	385	616	
7	0	0	0	0	333	616	
8	0	0	0	0	438	616	
9	0	0	0	0	451	616	
10	0	0	0	0	463	616	
11	0	0	0	0	501	617	
12	0	0	0	0	506	616	
13	0	0	0	0	496	617	
14	0	0	0	0	462	617	
15	0	0	0	0	453	616	
0	0	0	0	0	436	617	
1	0	0	0	0	467	617	
2	0	0	0	0	448	617	
3	0	0	0	0	392	617	
4	0	0	0	0	387	617	
5	0	0	0	0	463	617	
6	0	0	0	0	425	617	
7	0	0	0	0	479	617	
8	0	0	0	0	479	617	
9	0	0	0	0	530	617	
10	0	0	0	0	692	617	
11	0	0	0	0	661	617	
12	0	0	0	0	672	617	
13	0	0	0	0	579	617	
14	0	0	0	0	552	617	
15	0	0	0	0	781	617	
0	0	0	0	0	790	617	
1	0	0	0	0	792	618	
2	0	0	0	0	633	618	
3	0	0	0	0	602	617	
4	0	0	0	0	615	618	
5	0	0	0	0	591	618	
6	0	0	0	0	592	618	
7	0	0	0	0	721	618	
8	0	0	0	0	673	618	
9	0	0	0	0	688	618	
10	0	0	0	0	671	618	
11	0	0	0	0	609	618	
12	0	0	0	0	570	618	
13	0	0	0	0	644	618	
14	0	0	0	0	662	618	
15	0	0	0	0	584	618	
0	0	0	0	0	537	618	
1	0	0	0	0	559	618	
2	0	0	0	0	536	618	
3	0	0	0	0	501	618	
4	0	0	0	0	471	618	
5	0	0	0	0	478	618	
6	0	0	0	0	508	618	
7	0	0	0	0	593	618	
8	0	0	0	0	361	618	
9	0	0	0	0	474	618	
10	0	0	0	0	442	618	
11	0	0	0	0	455	618	
12	0	0	0	0	341	618	
13	0	0	0	0	451	619	
14	0	0	0	0	417	618	
15	0	0	0	0	447	619	
0	0	0	0	0	415	618	
1	0	0	0	0	412	619	
2	0	0	0	0	365	619	
3	0	0	0	0	338	618	
4	0	0	0	0	546	619	
5	0	0	0	0	435	619	
6	0	0	0	0	446	618	
7	0	0	0	0	497	619	
8	0	0	0	0	467	619	
9	0	0	0	0	395	619	
10	0	0	0	0	689	619	
11	0	0	0	0	568	619	
12	0	0	0	0	400	619	
13	0	0	0	0	511	619	
14	0	0	0	0	627	619	
15	0	0	0	0	446	619	
0	0	0	0	0	484	619	
1	0	0	0	0	537	619	
2	0	0	0	0	588	619	
3	0	0	0	0	491	619	
4	0	0	0	0	408	619	
5	0	0	0	0	627	619	
6	0	0	0	0	473	619	
7	0	0	0	0	580	619	
8	0	0	0	0	556	619	
9	0	0	0	0	477	619	
10	0	0	0	0	548	619	
11	0	0	0	0	428	619	
12	0	0	0	0	590	619	
13	0	0	0	0	459	619	
14	0	0	0	0	582	619	
15	0	0	0	0	496	620	
0	0	0	0	0	497	620	
1	0	0	0	0	535	619	
2	0	0	0	0	455	620	
3	0	0	0	0	561	619	
4	0	0	0	0	425	620	
5	0	0	0	0	555	620	
6	0	0	0	0	538	619	
7	0	0	0	0	413	620	
8	0	0	0	0	552	620	
9	0	0	0	0	555	620	
10	0	0	0	0	647	620	
11	0	0	0	0	573	620	
12	0	0	0	0	456	620	
13	0	0	0	0	522	620	
14	0	0	0	0	504	620	
15	0	0	0	0	396	620	
0	0	0	0	0	553	620	
1	0	0	0	0	504	620	
2	0	0	0	0	469	620	
3	0	0	0	0	578	620	
4	0	0	0	0	461	620	
5	0	0	0	0	557	620	
6	0	0	0	0	532	620	
7	0	0	0	0	425	620	
8	0	0	0	0	514	620	
9	0	0	0	0	525	620	
10	0	0	0	0	500	620	
11	0	0	0	0	424	620	
12	0	0	0	0	528	620	
13	0	0	0	0	432	620	
14	0	0	0	0	583	620	
15	0	0	0	0	529	620	
0	0	0	0	0	445	620	
1	0	0	0	0	477	620	
2	0	0	0	0	611	620	
3	0	0	0	0	437	620	
4	0	0	0	0	499	620	
5	0	0	0	0	531	620	
6	0	0	0	0	753	620	
7	0	0	0	0	748	620	
8	0	0	0	0	453	621	
9	0	0	0	0	521	621	
10	0	0	0	0	482	621	
11	0	0	0	0	471	620	
12	0	0	0	0	350	621	
13	0	0	0	0	543	621	
14	0	0	0	0	473	621	
15	0	0	0	0	503	621	
0	0	0	0	0	547	621	
1	0	0	0	0	461	621	
2	0	0	0	0	529	621	
3	0	0	0	0	487	621	
4	0	0	0	0	536	621	
5	0	0	0	0	491	621	
6	0	0	0	0	563	621	
7	0	0	0	0	591	621	
8	0	0	0	0	452	621	
9	0	0	0	0	524	622	
10	0	0	0	0	472	621	
11	0	0	0	0	599	621	
12	0	0	0	0	443	622	
13	0	0	0	0	617	622	
14	0	0	0	0	534	622	
15	0	0	0	0	515	622	
0	0	0	0	0	534	622	
1	0	0	0	0	505	622	
2	0	0	0	0	491	622	
3	0	0	0	0	399	622	
4	0	0	0	0	584	622	
5	0	0	0	0	393	622	
6	0	0	0	0	396	622	
7	0	0	0	0	561	622	
8	0	0	0	0	422	622	
9	0	0	0	0	312	622	
10	0	0	0	0	578	622	
11	0	0	0	0	466	622	
12	0	0	0	0	439	622	
13	0	0	0	0	455	622	
14	0	0	0	0	583	622	
15	0	0	0	0	380	622	
0	0	0	0	0	485	622	
1	0	0	0	0	583	622	
2	0	0	0	0	367	622	
3	0	0	0	0	558	622	
4	0	0	0	0	553	622	
5	0	0	0	0	536	622	
6	0	0	0	0	514	622	
7	0	0	0	0	437	622	
8	0	0	0	0	510	622	
9	0	0	0	0	540	622	
10	0	0	0	0	443	622	
11	0	0	0	0	605	622	
12	0	0	0	0	560	622	
13	0	0	0	0	495	622	
14	0	0	0	0	491	622	
15	0	0	0	0	522	622	
0	0	0	0	0	529	622	
1	0	0	0	0	392	622	
2	0	0	0	0	584	622	
3	0	0	0	0	559	622	
4	0	0	0	0	510	622	
5	0	0	0	0	467	622	
6	0	0	0	0	396	622	
7	0	0	0	0	583	622	
8	0	0	0	0	540	622	
9	0	0	0	0	504	622	
10	0	0	0	0	635	622	
11	0	0	0	0	489	622	
12	0	0	0	0	567	622	
13	0	0	0	0	473	622	
14	0	0	0	0	463	622	
15	0	0	0	0	478	622	
0	0	0	0	0	481	622	
1	0	0	0	0	505	622	
2	0	0	0	0	519	622	
3	0	0	0	0	534	622	
4	0	0	0	0	492	622	
5	0	0	0	0	469	622	
6	0	0	0	0	556	622	
7	0	0	0	0	495	622	
8	0	0	0	0	421	622	
9	0	0	0	0	565	622	
10	0	0	0	0	492	622	
11	0	0	0	0	367	622	
12	0	0	0	0	526	622	
13	0	0	0	0	642	622	
14	0	0	0	0	396	622	
15	0	0	0	0	469	622	
0	0	0	0	0	498	622	
1	0	0	0	0	496	622	
2	0	0	0	0	512	622	
3	0	0	0	0	468	622	
4	0	0	0	0	568	622	
5	0	0	0	0	465	622	
6	0	0	0	0	382	622	
7	0	0	0	0	655	622	
8	0	0	0	0	700	622	
9	0	0	0	0	694	622	
10	0	0	0	0	553	622	
11	0	0	0	0	444	622	
12	0	0	0	0	481	622	
13	0	0	0	0	389	622	
14	0	0	0	0	482	622	
15	0	0	0	0	463	622	
0	0	0	0	0	511	622	
1	0	0	0	0	537	622	
2	0	0	0	0	376	622	
3	0	0	0	0	492	622	
4	0	0	0	0	385	622	
5	0	0	0	0	559	622	
6	0	0	0	0	414	622	
7	0	0	0	0	551	622	
8	0	0	0	0	508	622	
9	0	0	0	0	391	622	
10	0	0	0	0	560	622	
11	0	0	0	0	485	622	
12	0	0	0	0	558	622	
13	0	0	0	0	359	622	
14	0	0	0	0	638	622	
15	0	0	0	0	551	622	
0	0	0	0	0	485	622	
1	0	0	0	0	510	622	
2	0	0	0	0	589	623	
3	0	0	0	0	512	622	
4	0	0	0	0	445	622	
5	0	0	0	0	595	623	
6	0	0	0	0	484	622	
7	0	0	0	0	609	623	
8	0	0	0	0	532	623	
9	0	0	0	0	467	623	
10	0	0	0	0	515	623	
11	0	0	0	0	387	622	
12	0	0	0	0	556	623	
13	0	0	0	0	550	623	
14	0	0	0	0	487	623	
15	0	0	0	0	496	623	
0	0	0	0	0	519	623	
1	0	0	0	0	432	623	
2	0	0	0	0	534	623	
3	0	0	0	0	522	623	
4	0	0	0	0	556	623	
5	0	0	0	0	510	623	
6	0	0	0	0	422	623	
7	0	0	0	0	481	623	
8	0	0	0	0	580	623	
9	0	0	0	0	561	623	
10	0	0	0	0	562	623	
11	0	0	0	0	514	623	
12	0	0	0	0	372	623	
13	0	0	0	0	476	623	
14	0	0	0	0	437	624	
15	0	0	0	0	428	623	
0	0	0	0	0	460	624	
1	0	0	0	0	506	623	
2	0	0	0	0	443	624	
3	0	0	0	0	515	624	
4	0	0	0	0	497	624	
5	0	0	0	0	354	624	
6	0	0	0	0	699	624	
7	0	0	0	0	513	624	
8	0	0	0	0	525	624	
9	0	0	0	0	478	624	
10	0	0	0	0	547	624	
11	0	0	0	0	416	624	
12	0	0	0	0	580	624	
13	0	0	0	0	595	624	
14	0	0	0	0	528	624	
15	0	0	0	0	422	624	
0	0	0	0	0	534	624	
1	0	0	0	0	580	624	
2	0	0	0	0	444	624	
3	0	0	0	0	582	624	
4	0	0	0	0	600	624	
5	0	0	0	0	472	624	
6	0	0	0	0	527	624	
7	0	0	0	0	568	624	
8	0	0	0	0	419	624	
9	0	0	0	0	523	625	
10	0	0	0	0	562	625	
11	0	0	0	0	500	624	
12	0	0	0	0	555	625	
13	0	0	0	0	527	625	
14	0	0	0	0	510	625	
15	0	0	0	0	490	625	
0	0	0	0	0	443	625	
1	0	0	0	0	532	625	
2	0	0	0	0	619	625	
3	0	0	0	0	639	625	
4	0	0	0	0	667	625	
5	0	0	0	0	661	625	
6	0	0	0	0	389	625	
7	0	0	0	0	516	625	
8	0	0	0	0	504	625	
9	0	0	0	0	555	625	
10	0	0	0	0	437	625	
11	0	0	0	0	466	625	
12	0	0	0	0	525	625	
13	0	0	0	0	429	626	
14	0	0	0	0	448	625	
15	0	0	0	0	511	626	
0	0	0	0	0	509	626	
1	0	0	0	0	569	626	
2	0	0	0	0	539	626	
3	0	0	0	0	426	626	
4	0	0	0	0	565	626	
5	0	0	0	0	491	626	
6	0	0	0	0	488	626	
7	0	0	0	0	521	626	
8	0	0	0	0	552	626	
9	0	0	0	0	557	626	
10	0	0	0	0	550	627	
11	0	0	0	0	457	626	
12	0	0	0	0	532	627	
13	0	0	0	0	590	627	
14	0	0	0	0	568	627	
15	0	0	0	0	544	627	
0	0	0	0	0	478	627	
1	0	0	0	0	525	627	
2	0	0	0	0	346	627	
3	0	0	0	0	590	627	
4	0	0	0	0	556	627	
5	0	0	0	0	403	627	
6	0	0	0	0	549	627	
7	0	0	0	0	528	627	
8	0	0	0	0	279	627	
9	0	0	0	0	581	627	
10	0	0	0	0	527	627	
11	0	0	0	0	530	627	
12	0	0	0	0	545	627	
13	0	0	0	0	443	627	
14	0	0	0	0	484	627	
15	0	0	0	0	568	627	
0	0	0	0	0	479	628	
1	0	0	0	0	519	627	
2	0	0	0	0	446	628	
3	0	0	0	0	617	628	
4	0	0	0	0	425	628	
5	0	0	0	0	454	628	
6	0	0	0	0	555	628	
7	0	0	0	0	549	628	
8	0	0	0	0	491	628	
9	0	0	0	0	432	628	
10	0	0	0	0	571	628	
11	0	0	0	0	540	628	
12	0	0	0	0	444	628	
13	0	0	0	0	519	628	
14	0	0	0	0	519	628	
15	0	0	0	0	558	628	
0	0	0	0	0	482	628	
1	0	0	0	0	396	628	
2	0	0	0	0	609	629	
3	0	0	0	0	569	628	
4	0	0	0	0	531	629	
5	0	0	0	0	423	629	
6	0	0	0	0	541	629	
7	0	0	0	0	508	629	
8	0	0	0	0	529	629	
9	0	0	0	0	523	629	
10	0	0	0	0	511	629	
11	0	0	0	0	506	629	
12	0	0	0	0	467	629	
13	0	0	0	0	614	629	
14	0	0	0	0	458	629	
15	0	0	0	0	457	629	
0	0	0	0	0	591	629	
1	0	0	0	0	502	630	
2	0	0	0	0	460	629	
3	0	0	0	0	515	630	
4	0	0	0	0	432	630	
5	0	0	0	0	553	630	
6	0	0	0	0	504	630	
7	0	0	0	0	445	630	
8	0	0	0	0	584	630	
9	0	0	0	0	451	630	
10	0	0	0	0	502	630	
11	0	0	0	0	555	630	
12	0	0	0	0	508	630	
13	0	0	0	0	547	630	
14	0	0	0	0	679	630	
15	0	0	0	0	747	630	
0	0	0	0	0	492	630	
1	0	0	0	0	506	630	
2	0	0	0	0	423	631	
3	0	0	0	0	431	630	
4	0	0	0	0	492	630	
5	0	0	0	0	468	630	
6	0	0	0	0	504	630	
7	0	0	0	0	444	631	
8	0	0	0	0	513	630	
9	0	0	0	0	509	630	
10	0	0	0	0	515	631	
11	0	0	0	0	489	631	
12	0	0	0	0	442	631	
13	0	0	0	0	512	631	
14	0	0	0	0	551	631	
15	0	0	0	0	496	631	
0	0	0	0	0	518	631	
1	0	0	0	0	516	631	
2	0	0	0	0	532	631	
3	0	0	0	0	506	631	
4	0	0	0	0	632	631	
5	0	0	0	0	525	631	
6	0	0	0	0	480	631	
7	0	0	0	0	499	631	
8	0	0	0	0	592	631	
9	0	0	0	0	547	631	
10	0	0	0	0	544	631	
11	0	0	0	0	380	631	
12	0	0	0	0	604	631	
13	0	0	0	0	480	631	
14	0	0	0	0	540	631	
15	0	0	0	0	464	631	
0	0	0	0	0	472	631	
1	0	0	0	0	434	631	
2	0	0	0	0	472	631	
3	0	0	0	0	408	631	
4	0	0	0	0	575	631	
5	0	0	0	0	520	632	
6	0	0	0	0	427	632	
7	0	0	0	0	570	631	
8	0	0	0	0	483	632	
9	0	0	0	0	544	631	
10	0	0	0	0	464	632	
11	0	0	0	0	490	632	
12	0	0	0	0	489	631	
13	0	0	0	0	550	632	
14	0	0	0	0	332	631	
15	0	0	0	0	608	632	
0	0	0	0	0	557	632	
1	0	0	0	0	509	632	
2	0	0	0	0	481	631	
3	0	0	0	0	460	631	
4	0	0	0	0	518	632	
5	0	0	0	0	500	631	
6	0	0	0	0	540	632	
7	0	0	0	0	500	632	
8	0	0	0	0	506	632	
9	0	0	0	0	486	632	
10	0	0	0	0	580	632	
11	0	0	0	0	410	632	
12	0	0	0	0	595	632	
13	0	0	0	0	480	632	
14	0	0	0	0	445	632	
15	0	0	0	0	569	632	
0	0	0	0	0	509	632	
1	0	0	0	0	470	632	
2	0	0	0	0	558	632	
3	0	0	0	0	502	632	
4	0	0	0	0	522	632	
5	0	0	0	0	490	632	
6	0	0	0	0	543	632	
7	0	0	0	0	487	632	
8	0	0	0	0	485	632	
9	0	0	0	0	475	632	
10	0	0	0	0	597	632	
11	0	0	0	0	511	632	
12	0	0	0	0	524	632	
13	0	0	0	0	507	632	
14	0	0	0	0	583	632	
15	0	0	0	0	519	632	
0	0	0	0	0	445	632	
1	0	0	0	0	438	632	
2	0	0	0	0	634	632	
3	0	0	0	0	474	632	
4	0	0	0	0	543	632	
5	0	0	0	0	515	632	
6	0	0	0	0	519	632	
7	0	0	0	0	465	632	
8	0	0	0	0	571	632	
9	0	0	0	0	524	632	
10	0	0	0	0	527	632	
11	0	0	0	0	547	632	
12	0	0	0	0	435	632	
13	0	0	0	0	528	632	
14	0	0	0	0	467	632	
15	0	0	0	0	450	632	
0	0	0	0	0	527	632	
1	0	0	0	0	496	632	
2	0	0	0	0	518	632	
3	0	0	0	0	489	632	
4	0	0	0	0	428	632	
5	0	0	0	0	578	632	
6	0	0	0	0	538	632	
7	0	0	0	0	455	632	
8	0	0	0	0	777	632	
9	0	0	0	0	742	632	
10	0	0	0	0	494	632	
11	0	0	0	0	583	632	
12	0	0	0	0	378	632	
13	0	0	0	0	375	632	
14	0	0	0	0	484	632	
15	0	0	0	0	455	632	
0	0	0	0	0	512	632	
1	0	0	0	0	397	632	
2	0	0	0	0	453	632	
3	0	0	0	0	478	632	
4	0	0	0	0	524	632	
5	0	0	0	0	476	632	
6	0	0	0	0	523	632	
7	0	0	0	0	526	632	
8	0	0	0	0	405	632	
9	0	0	0	0	483	632	
10	0	0	0	0	579	632	
11	0	0	0	0	508	632	
12	0	0	0	0	446	632	
13	0	0	0	0	558	632	
14	0	0	0	0	525	632	
15	0	0	0	0	527	632	
0	0	0	0	0	549	632	
1	0	0	0	0	447	632	
2	0	0	0	0	638	632	
3	0	0	0	0	557	632	
4	0	0	0	0	526	632	
5	0	0	0	0	449	632	
6	0	0	0	0	574	632	
7	0	0	0	0	353	632	
8	0	0	0	0	643	632	
9	0	0	0	0	465	632	
10	0	0	0	0	512	632	
11	0	0	0	0	424	632	
12	0	0	0	0	469	632	
13	0	0	0	0	331	632	
14	0	0	0	0	680	632	
15	0	0	0	0	514	632	
0	0	0	0	0	407	632	
1	0	0	0	0	450	632	
2	0	0	0	0	600	632	
3	0	0	0	0	510	632	
4	0	0	0	0	500	632	
5	0	0	0	0	444	632	
6	0	0	0	0	584	632	
7	0	0	0	0	481	632	
8	0	0	0	0	515	632	
9	0	0	0	0	456	632	
10	0	0	0	0	595	632	
11	0	0	0	0	507	632	
12	0	0	0	0	476	632	
13	0	0	0	0	555	632	
14	0	0	0	0	515	632	
15	0	0	0	0	498	632	
0	0	0	0	0	489	632	
1	0	0	0	0	575	632	
2	0	0	0	0	563	632	
3	0	0	0	0	337	632	
4	0	0	0	0	557	632	
5	0	0	0	0	556	632	
6	0	0	0	0	531	632	
7	0	0	0	0	395	632	
8	0	0	0	0	538	632	
9	0	0	0	0	577	632	
10	0	0	0	0	484	632	
11	0	0	0	0	523	632	
12	0	0	0	0	477	632	
13	0	0	0	0	522	632	
14	0	0	0	0	486	632	
15	0	0	0	0	488	632	
0	0	0	0	0	503	632	
1	0	0	0	0	451	632	
2	0	0	0	0	569	632	
3	0	0	0	0	500	632	
4	0	0	0	0	458	632	
5	0	0	0	0	606	632	
6	0	0	0	0	472	632	
7	0	0	0	0	536	632	
8	0	0	0	0	534	632	
9	0	0	0	0	573	632	
10	0	0	0	0	521	632	
11	0	0	0	0	413	632	
12	0	0	0	0	608	632	
13	0	0	0	0	498	632	
14	0	0	0	0	502	632	
15	0	0	0	0	509	632	
0	0	0	0	0	550	632	
1	0	0	0	0	498	632	
2	0	0	0	0	493	632	
3	0	0	0	0	551	632	
4	0	0	0	0	489	632	
5	0	0	0	0	530	632	
6	0	0	0	0	457	632	
7	0	0	0	0	519	632	
8	0	0	0	0	508	632	
9	0	0	0	0	516	632	
10	0	0	0	0	486	632	
11	0	0	0	0	538	632	
12	0	0	0	0	534	632	
13	0	0	0	0	490	632	
14	0	0	0	0	422	632	
15	0	0	0	0	483	632	
0	0	0	0	0	436	632	
1	0	0	0	0	587	632	
2	0	0	0	0	545	632	
3	0	0	0	0	629	632	
4	0	0	0	0	687	632	
5	0	0	0	0	629	632	
6	0	0	0	0	352	632	
7	0	0	0	0	502	632	
8	0	0	0	0	511	632	
9	0	0	0	0	501	632	
10	0	0	0	0	402	632	
11	0	0	0	0	426	632	
12	0	0	0	0	549	632	
13	0	0	0	0	511	632	
14	0	0	0	0	417	632	
15	0	0	0	0	447	632	
0	0	0	0	0	553	632	
1	0	0	0	0	572	632	
2	0	0	0	0	509	632	
3	0	0	0	0	434	632	
4	0	0	0	0	470	632	
5	0	0	0	0	587	632	
6	0	0	0	0	581	632	
7	0	0	0	0	532	632	
8	0	0	0	0	511	632	
9	0	0	0	0	356	632	
10	0	0	0	0	525	632	
11	0	0	0	0	657	632	
12	0	0	0	0	608	632	
13	0	0	0	0	541	632	
14	0	0	0	0	502	632	
15	0	0	0	0	476	632	
0	0	0	0	0	508	632	
1	0	0	0	0	539	632	
2	0	0	0	0	462	632	
3	0	0	0	0	396	632	
4	0	0	0	0	524	632	
5	0	0	0	0	533	632	
6	0	0	0	0	459	631	
7	0	0	0	0	466	632	
8	0	0	0	0	423	631	
9	0	0	0	0	476	631	
10	0	0	0	0	490	632	
11	0	0	0	0	512	631	
12	0	0	0	0	471	632	
13	0	0	0	0	444	631	
14	0	0	0	0	538	631	
15	0	0	0	0	462	631	
0	0	0	0	0	473	631	
1	0	0	0	0	567	632	
2	0	0	0	0	464	631	
3	0	0	0	0	461	631	
4	0	0	0	0	556	631	
5	0	0	0	0	464	631	
6	0	0	0	0	500	631	
7	0	0	0	0	564	631	
8	0	0	0	0	497	631	
9	0	0	0	0	495	631	
10	0	0	0	0	528	631	
11	0	0	0	0	493	631	
12	0	0	0	0	496	631	
13	0	0	0	0	490	631	
14	0	0	0	0	493	631	
15	0	0	0	0	523	631	
0	0	0	0	0	536	631	
1	0	0	0	0	504	631	
2	0	0	0	0	512	631	
3	0	0	0	0	528	631	
4	0	0	0	0	540	631	
5	0	0	0	0	568	631	
6	0	0	0	0	577	630	
7	0	0	0	0	591	631	
8	0	0	0	0	591	631	
9	0	0	0	0	575	631	
10	0	0	0	0	561	631	
11	0	0	0	0	551	631	
12	0	0	0	0	546	631	
13	0	0	0	0	572	631	
14	0	0	0	0	561	630	
15	0	0	0	0	540	631	
0	0	0	0	0	553	631	
1	0	0	0	0	515	630	
2	0	0	0	0	522	631	
3	0	0	0	0	505	630	
4	0	0	0	0	503	631	
5	0	0	0	0	483	630	
6	0	0	0	0	464	631	
7	0	0	0	0	481	631	
8	0	0	0	0	462	631	
9	0	0	0	0	452	631	
10	0	0	0	0	452	631	
11	0	0	0	0	427	631	
12	0	0	0	0	406	631	
13	0	0	0	0	387	631	
14	0	0	0	0	433	631	
15	0	0	0	0	440	631	
0	0	0	0	0	418	631	
1	0	0	0	0	412	631	
2	0	0	0	0	426	630	
3	0	0	0	0	406	630	
4	0	0	0	0	427	630	
5	0	0	0	0	428	631	
6	0	0	0	0	401	631	
7	0	0	0	0	400	630	
8	0	0	0	0	410	630	
9	0	0	0	0	453	630	
10	0	0	0	0	424	630	
11	0	0	0	0	464	630	
12	0	0	0	0	458	630	
13	0	0	0	0	491	630	
14	0	0	0	0	540	630	
15	0	0	0	0	694	630	
0	0	0	0	0	677	630	
1	0	0	0	0	612	630	
2	0	0	0	0	518	630	
3	0	0	0	0	502	630	
4	0	0	0	0	473	630	
5	0	0	0	0	516	630	
6	0	0	0	0	537	630	
7	0	0	0	0	483	630	
8	0	0	0	0	515	630	
9	0	0	0	0	505	630	
10	0	0	0	0	502	630	
11	0	0	0	0	538	630	
12	0	0	0	0	575	630	
13	0	0	0	0	587	630	
14	0	0	0	0	565	630	
15	0	0	0	0	438	630	
0	0	0	0	0	528	630	
1	0	0	0	0	507	630	
2	0	0	0	0	482	630	
3	0	0	0	0	508	630	
4	0	0	0	0	494	630	
5	0	0	0	0	518	630	
6	0	0	0	0	501	630	
7	0	0	0	0	504	630	
8	0	0	0	0	457	629	
9	0	0	0	0	473	630	
10	0	0	0	0	455	629	
11	0	0	0	0	444	630	
12	0	0	0	0	403	629	
13	0	0	0	0	412	629	
14	0	0	0	0	381	629	
15	0	0	0	0	366	629	
0	0	0	0	0	400	629	
1	0	0	0	0	408	629	
2	0	0	0	0	447	629	
3	0	0	0	0	461	629	
4	0	0	0	0	501	629	
5	0	0	0	0	525	629	
6	0	0	0	0	563	629	
7	0	0	0	0	535	629	
8	0	0	0	0	539	629	
9	0	0	0	0	588	629	
10	0	0	0	0	595	629	
11	0	0	0	0	605	629	
12	0	0	0	0	587	629	
13	0	0	0	0	611	629	
14	0	0	0	0	604	629	
15	0	0	0	0	596	629	
0	0	0	0	0	558	629	
1	0	0	0	0	602	629	
2	0	0	0	0	580	629	
3	0	0	0	0	584	628	
4	0	0	0	0	552	629	
5	0	0	0	0	560	629	
6	0	0	0	0	561	628	
7	0	0	0	0	560	629	
8	0	0	0	0	590	628	
9	0	0	0	0	575	629	
10	0	0	0	0	606	628	
11	0	0	0	0	607	628	
12	0	0	0	0	606	629	
13	0	0	0	0	580	628	
14	0	0	0	0	677	629	
15	0	0	0	0	859	628	
0	0	0	0	0	1022	628	
1	0	0	0	0	969	629	
2	0	0	0	0	753	628	
3	0	0	0	0	665	628	
4	0	0	0	0	598	628	
5	0	0	0	0	503	628	
6	0	0	0	0	478	628	
7	0	0	0	0	432	628	
8	0	0	0	0	415	628	
9	0	0	0	0	379	628	
10	0	0	0	0	415	628	
11	0	0	0	0	363	628	
12	0	0	0	0	351	628	
13	0	0	0	0	361	628	
14	0	0	0	0	354	628	
15	0	0	0	0	332	628	
0	0	0	0	0	384	628	
1	0	0	0	0	350	628	
2	0	0	0	0	358	628	
3	0	0	0	0	386	628	
4	0	0	0	0	370	628	
5	0	0	0	0	364	628	
6	0	0	0	0	391	628	
7	0	0	0	0	367	628	
8	0	0	0	0	432	628	
9	0	0	0	0	419	628	
10	0	0	0	0	412	628	
11	0	0	0	0	447	628	
12	0	0	0	0	485	628	
13	0	0	0	0	438	628	
14	0	0	0	0	459	627	
15	0	0	0	0	455	627	
0	0	0	0	0	488	627	
1	0	0	0	0	509	627	
2	0	0	0	0	504	628	
3	0	0	0	0	493	627	
4	0	0	0	0	474	627	
5	0	0	0	0	478	627	
6	0	0	0	0	511	627	
7	0	0	0	0	475	627	
8	0	0	0	0	509	627	
9	0	0	0	0	512	627	
10	0	0	0	0	487	627	
11	0	0	0	0	471	627	
12	0	0	0	0	533	627	
13	0	0	0	0	525	627	
14	0	0	0	0	523	627	
15	0	0	0	0	563	627	
0	0	0	0	0	704	627	
1	0	0	0	0	725	627	
2	0	0	0	0	638	627	
3	0	0	0	0	542	627	
4	0	0	0	0	468	627	
5	0	0	0	0	540	627	
6	0	0	0	0	481	627	
7	0	0	0	0	512	627	
8	0	0	0	0	547	627	
9	0	0	0	0	488	627	
10	0	0	0	0	548	627	
11	0	0	0	0	509	627	
12	0	0	0	0	516	627	
13	0	0	0	0	534	627	
14	0	0	0	0	532	627	
15	0	0	0	0	508	627	
0	0	0	0	0	512	627	
1	0	0	0	0	537	627	
2	0	0	0	0	557	627	
3	0	0	0	0	584	627	
4	0	0	0	0	575	627	
5	0	0	0	0	526	627	
6	0	0	0	0	583	627	
7	0	0	0	0	543	627	
8	0	0	0	0	561	627	
9	0	0	0	0	562	627	
10	0	0	0	0	557	627	
11	0	0	0	0	579	627	
12	0	0	0	0	570	627	
13	0	0	0	0	523	627	
14	0	0	0	0	561	627	
15	0	0	0	0	557	627	
0	0	0	0	0	501	627	
1	0	0	0	0	469	627	
2	0	0	0	0	549	627	
3	0	0	0	0	502	627	
4	0	0	0	0	474	627	
5	0	0	0	0	481	627	
6	0	0	0	0	498	627	
7	0	0	0	0	440	626	
8	0	0	0	0	546	627	
9	0	0	0	0	483	627	
10	0	0	0	0	558	627	
11	0	0	0	0	516	627	
12	0	0	0	0	509	626	
13	0	0	0	0	561	627	
14	0	0	0	0	565	627	
15	0	0	0	0	463	626	
0	0	0	0	0	552	626	
1	0	0	0	0	574	626	
2	0	0	0	0	466	626	
3	0	0	0	0	585	626	
4	0	0	0	0	510	626	
5	0	0	0	0	504	626	
6	0	0	0	0	503	626	
7	0	0	0	0	513	626	
8	0	0	0	0	558	626	
9	0	0	0	0	492	626	
10	0	0	0	0	555	626	
11	0	0	0	0	507	626	
12	0	0	0	0	423	626	
13	0	0	0	0	506	626	
14	0	0	0	0	505	626	
15	0	0	0	0	435	626	
0	0	0	0	0	527	626	
1	0	0	0	0	504	626	
2	0	0	0	0	496	626	
3	0	0	0	0	471	626	
4	0	0	0	0	571	626	
5	0	0	0	0	492	626	
6	0	0	0	0	515	626	
7	0	0	0	0	513	626	
8	0	0	0	0	587	626	
9	0	0	0	0	460	626	
10	0	0	0	0	525	626	
11	0	0	0	0	524	626	
12	0	0	0	0	523	626	
13	0	0	0	0	470	626	
14	0	0	0	0	551	626	
15	0	0	0	0	437	626	
0	0	0	0	0	573	626	
1	0	0	0	0	448	626	
2	0	0	0	0	459	626	
3	0	0	0	0	582	626	
4	0	0	0	0	471	626	
5	0	0	0	0	497	626	
6	0	0	0	0	504	626	
7	0	0	0	0	465	626	
8	0	0	0	0	515	626	
9	0	0	0	0	512	626	
10	0	0	0	0	517	626	
11	0	0	0	0	476	626	
12	0	0	0	0	470	625	
13	0	0	0	0	524	626	
14	0	0	0	0	454	625	
15	0	0	0	0	448	626	
0	0	0	0	0	497	625	
1	0	0	0	0	452	625	
2	0	0	0	0	543	626	
3	0	0	0	0	527	625	
4	0	0	0	0	437	626	
5	0	0	0	0	491	626	
6	0	0	0	0	582	626	
7	0	0	0	0	722	626	
8	0	0	0	0	643	626	
9	0	0	0	0	507	626	
10	0	0	0	0	402	626	
11	0	0	0	0	498	626	
12	0	0	0	0	399	626	
13	0	0	0	0	489	626	
14	0	0	0	0	505	626	
15	0	0	0	0	433	626	
0	0	0	0	0	507	626	
1	0	0	0	0	474	626	
2	0	0	0	0	490	626	
3	0	0	0	0	483	626	
4	0	0	0	0	473	626	
5	0	0	0	0	499	626	
6	0	0	0	0	545	626	
7	0	0	0	0	479	626	
8	0	0	0	0	443	626	
9	0	0	0	0	560	626	
10	0	0	0	0	528	626	
11	0	0	0	0	489	626	
12	0	0	0	0	535	625	
13	0	0	0	0	522	625	
14	0	0	0	0	524	625	
15	0	0	0	0	555	625	
0	0	0	0	0	498	625	
1	0	0	0	0	543	625	
2	0	0	0	0	470	625	
3	0	0	0	0	552	625	
4	0	0	0	0	561	625	
5	0	0	0	0	501	625	
6	0	0	0	0	443	624	
7	0	0	0	0	487	624	
8	0	0	0	0	443	624	
9	0	0	0	0	480	624	
10	0	0	0	0	473	624	
11	0	0	0	0	476	624	
12	0	0	0	0	517	624	
13	0	0	0	0	501	624	
14	0	0	0	0	500	624	
15	0	0	0	0	396	624	
0	0	0	0	0	530	624	
1	0	0	0	0	482	624	
2	0	0	0	0	518	624	
3	0	0	0	0	500	624	
4	0	0	0	0	450	624	
5	0	0	0	0	472	624	
6	0	0	0	0	463	624	
7	0	0	0	0	563	624	
8	0	0	0	0	528	624	
9	0	0	0	0	438	625	
10	0	0	0	0	473	625	
11	0	0	0	0	488	625	
12	0	0	0	0	522	625	
13	0	0	0	0	475	625	
14	0	0	0	0	512	625	
15	0	0	0	0	512	625	
0	0	0	0	0	529	625	
1	0	0	0	0	448	625	
2	0	0	0	0	537	625	
3	0	0	0	0	480	625	
4	0	0	0	0	461	625	
5	0	0	0	0	567	625	
6	0	0	0	0	513	625	
7	0	0	0	0	534	625	
8	0	0	0	0	447	625	
9	0	0	0	0	559	625	
10	0	0	0	0	472	626	
11	0	0	0	0	520	625	
12	0	0	0	0	571	625	
13	0	0	0	0	521	625	
14	0	0	0	0	531	625	
15	0	0	0	0	519	625	
0	0	0	0	0	472	625	
1	0	0	0	0	508	625	
2	0	0	0	0	547	625	
3	0	0	0	0	504	625	
4	0	0	0	0	499	625	
5	0	0	0	0	562	625	
6	0	0	0	0	489	625	
7	0	0	0	0	563	625	
8	0	0	0	0	517	625	
9	0	0	0	0	532	624	
10	0	0	0	0	495	625	
11	0	0	0	0	567	624	
12	0	0	0	0	496	624	
13	0	0	0	0	539	624	
14	0	0	0	0	543	624	
15	0	0	0	0	504	624	
0	0	0	0	0	536	624	
1	0	0	0	0	468	624	
2	0	0	0	0	524	624	
3	0	0	0	0	498	624	
4	0	0	0	0	459	624	
5	0	0	0	0	548	624	
6	0	0	0	0	499	624	
7	0	0	0	0	375	624	
8	0	0	0	0	583	624	
9	0	0	0	0	570	624	
10	0	0	0	0	517	624	
11	0	0	0	0	541	624	
12	0	0	0	0	612	624	
13	0	0	0	0	692	624	
14	0	0	0	0	625	624	
15	0	0	0	0	502	624	
0	0	0	0	0	434	624	
1	0	0	0	0	362	624	
2	0	0	0	0	530	624	
3	0	0	0	0	539	624	
4	0	0	0	0	528	624	
5	0	0	0	0	463	624	
6	0	0	0	0	367	624	
7	0	0	0	0	479	624	
8	0	0	0	0	522	624	
9	0	0	0	0	535	624	
10	0	0	0	0	455	624	
11	0	0	0	0	400	624	
12	0	0	0	0	577	624	
13	0	0	0	0	540	624	
14	0	0	0	0	482	624	
15	0	0	0	0	476	624	
0	0	0	0	0	490	624	
1	0	0	0	0	553	624	
2	0	0	0	0	493	624	
3	0	0	0	0	515	623	
4	0	0	0	0	537	624	
5	0	0	0	0	572	623	
6	0	0	0	0	538	623	
7	0	0	0	0	503	624	
8	0	0	0	0	481	624	
9	0	0	0	0	575	624	
10	0	0	0	0	520	624	
11	0	0	0	0	504	624	
12	0	0	0	0	478	623	
13	0	0	0	0	466	624	
14	0	0	0	0	488	624	
15	0	0	0	0	481	623	
0	0	0	0	0	450	623	
1	0	0	0	0	536	623	
2	0	0	0	0	460	623	
3	0	0	0	0	448	624	
4	0	0	0	0	518	623	
5	0	0	0	0	522	623	
6	0	0	0	0	526	623	
7	0	0	0	0	469	623	
8	0	0	0	0	494	624	
9	0	0	0	0	509	623	
10	0	0	0	0	527	623	
11	0	0	0	0	516	623	
12	0	0	0	0	479	623	
13	0	0	0	0	447	623	
14	0	0	0	0	470	623	
15	0	0	0	0	641	623	
0	0	0	0	0	530	623	
1	0	0	0	0	458	623	
2	0	0	0	0	466	623	
3	0	0	0	0	470	623	
4	0	0	0	0	556	623	
5	0	0	0	0	598	623	
6	0	0	0	0	544	623	
7	0	0	0	0	490	623	
8	0	0	0	0	480	623	
9	0	0	0	0	340	623	
10	0	0	0	0	591	623	
11	0	0	0	0	658	623	
12	0	0	0	0	538	623	
13	0	0	0	0	454	623	
14	0	0	0	0	514	623	
15	0	0	0	0	499	623	
0	0	0	0	0	423	623	
1	0	0	0	0	551	623	
2	0	0	0	0	590	623	
3	0	0	0	0	510	623	
4	0	0	0	0	470	623	
5	0	0	0	0	512	623	
6	0	0	0	0	520	623	
7	0	0	0	0	484	623	
8	0	0	0	0	518	623	
9	0	0	0	0	553	623	
10	0	0	0	0	476	623	
11	0	0	0	0	553	623	
12	0	0	0	0	527	623	
13	0	0	0	0	506	623	
14	0	0	0	0	507	623	
15	0	0	0	0	544	623	
0	0	0	0	0	514	623	
1	0	0	0	0	515	623	
2	0	0	0	0	491	623	
3	0	0	0	0	456	623	
4	0	0	0	0	534	623	
5	0	0	0	0	492	623	
6	0	0	0	0	494	623	
7	0	0	0	0	548	623	
8	0	0	0	0	532	623	
9	0	0	0	0	468	623	
10	0	0	0	0	556	623	
11	0	0	0	0	484	623	
12	0	0	0	0	592	623	
13	0	0	0	0	722	623	
14	0	0	0	0	684	623	
15	0	0	0	0	459	623	
0	0	0	0	0	426	623	
1	0	0	0	0	482	623	
2	0	0	0	0	433	623	
3	0	0	0	0	516	623	
4	0	0	0	0	491	623	
5	0	0	0	0	487	623	
6	0	0	0	0	472	623	
7	0	0	0	0	473	623	
8	0	0	0	0	514	623	
9	0	0	0	0	436	623	
10	0	0	0	0	545	623	
11	0	0	0	0	492	623	
12	0	0	0	0	515	623	
13	0	0	0	0	573	623	
14	0	0	0	0	494	623	
15	0	0	0	0	521	623	
0	0	0	0	0	512	623	
1	0	0	0	0	557	623	
2	0	0	0	0	435	623	
3	0	0	0	0	575	623	
4	0	0	0	0	607	623	
5	0	0	0	0	524	623	
6	0	0	0	0	536	623	
7	0	0	0	0	571	623	
8	0	0	0	0	487	623	
9	0	0	0	0	549	623	
10	0	0	0	0	527	623	
11	0	0	0	0	467	623	
12	0	0	0	0	570	623	
13	0	0	0	0	547	623	
14	0	0	0	0	448	623	
15	0	0	0	0	497	623	
0	0	0	0	0	465	623	
1	0	0	0	0	476	623	
2	0	0	0	0	457	623	
3	0	0	0	0	436	623	
4	0	0	0	0	520	623	
5	0	0	0	0	513	623	
6	0	0	0	0	494	623	
7	0	0	0	0	451	623	
8	0	0	0	0	537	623	
9	0	0	0	0	438	623	
10	0	0	0	0	556	623	
11	0	0	0	0	515	623	
12	0	0	0	0	514	623	
13	0	0	0	0	475	623	
14	0	0	0	0	483	623	
15	0	0	0	0	558	623	
0	0	0	0	0	505	623	
1	0	0	0	0	451	623	
2	0	0	0	0	522	623	
3	0	0	0	0	481	623	
4	0	0	0	0	519	623	
5	0	0	0	0	514	623	
6	0	0	0	0	447	623	
7	0	0	0	0	592	623	
8	0	0	0	0	511	623	
9	0	0	0	0	487	623	
10	0	0	0	0	460	623	
11	0	0	0	0	548	623	
12	0	0	0	0	536	623	
13	0	0	0	0	455	623	
14	0	0	0	0	566	623	
15	0	0	0	0	512	623	
0	0	0	0	0	500	623	
1	0	0	0	0	532	623	
2	0	0	0	0	528	623	
3	0	0	0	0	511	623	
4	0	0	0	0	468	623	
5	0	0	0	0	499	623	
6	0	0	0	0	550	623	
7	0	0	0	0	534	623	
8	0	0	0	0	521	623	
9	0	0	0	0	509	623	
10	0	0	0	0	478	623	
11	0	0	0	0	536	623	
12	0	0	0	0	490	623	
13	0	0	0	0	460	623	
14	0	0	0	0	505	623	
15	0	0	0	0	504	623	
0	0	0	0	0	515	623	
1	0	0	0	0	453	623	
2	0	0	0	0	557	623	
3	0	0	0	0	516	623	
4	0	0	0	0	513	623	
5	0	0	0	0	498	623	
6	0	0	0	0	499	623	
7	0	0	0	0	564	623	
8	0	0	0	0	750	623	
9	0	0	0	0	695	623	
10	0	0	0	0	532	623	
11	0	0	0	0	496	623	
12	0	0	0	0	439	623	
13	0	0	0	0	469	623	
14	0	0	0	0	451	623	
15	0	0	0	0	436	623	
0	0	0	0	0	493	623	
1	0	0	0	0	496	623	
2	0	0	0	0	447	623	
3	0	0	0	0	531	623	
4	0	0	0	0	516	623	
5	0	0	0	0	463	623	
6	0	0	0	0	569	623	
7	0	0	0	0	463	623	
8	0	0	0	0	548	623	
9	0	0	0	0	514	623	
10	0	0	0	0	470	623	
11	0	0	0	0	528	623	
12	0	0	0	0	515	623	
13	0	0	0	0	527	623	
14	0	0	0	0	518	623	
15	0	0	0	0	520	623	
0	0	0	0	0	572	623	
1	0	0	0	0	543	623	
2	0	0	0	0	499	623	
3	0	0	0	0	544	623	
4	0	0	0	0	524	623	
5	0	0	0	0	497	623	
6	0	0	0	0	492	623	
7	0	0	0	0	509	623	
8	0	0	0	0	515	623	
9	0	0	0	0	447	623	
10	0	0	0	0	459	623	
11	0	0	0	0	543	623	
12	0	0	0	0	497	623	
13	0	0	0	0	478	623	
14	0	0	0	0	471	623	
15	0	0	0	0	504	623	
0	0	0	0	0	445	623	
1	0	0	0	0	510	623	
2	0	0	0	0	547	623	
3	0	0	0	0	501	623	
4	0	0	0	0	503	623	
5	0	0	0	0	519	623	
6	0	0	0	0	481	623	
7	0	0	0	0	447	623	
8	0	0	0	0	565	623	
9	0	0	0	0	481	623	
10	0	0	0	0	465	623	
11	0	0	0	0	516	623	
12	0	0	0	0	482	623	
13	0	0	0	0	518	623	
14	0	0	0	0	532	623	
15	0	0	0	0	488	623	
0	0	0	0	0	527	623	
1	0	0	0	0	538	623	
2	0	0	0	0	473	623	
3	0	0	0	0	471	623	
4	0	0	0	0	563	623	
5	0	0	0	0	490	623	
6	0	0	0	0	466	623	
7	0	0	0	0	510	623	
8	0	0	0	0	534	623	
9	0	0	0	0	518	623	
10	0	0	0	0	535	623	
11	0	0	0	0	533	623	
12	0	0	0	0	519	623	
13	0	0	0	0	491	623	
14	0	0	0	0	507	623	
15	0	0	0	0	577	623	
0	0	0	0	0	562	623	
1	0	0	0	0	507	623	
2	0	0	0	0	507	623	
3	0	0	0	0	529	623	
4	0	0	0	0	491	623	
5	0	0	0	0	455	623	
6	0	0	0	0	485	623	
7	0	0	0	0	496	623	
8	0	0	0	0	460	623	
9	0	0	0	0	557	623	
10	0	0	0	0	490	623	
11	0	0	0	0	531	623	
12	0	0	0	0	489	623	
13	0	0	0	0	479	623	
14	0	0	0	0	676	623	
15	0	0	0	0	700	623	
0	0	0	0	0	659	623	
1	0	0	0	0	503	623	
2	0	0	0	0	423	622	
3	0	0	0	0	456	622	
4	0	0	0	0	439	622	
5	0	0	0	0	478	622	
6	0	0	0	0	466	622	
7	0	0	0	0	451	622	
8	0	0	0	0	487	622	
9	0	0	0	0	465	622	
10	0	0	0	0	495	622	
11	0	0	0	0	468	621	
12	0	0	0	0	498	621	
13	0	0	0	0	542	621	
14	0	0	0	0	521	620	
15	0	0	0	0	489	620	
0	0	0	0	0	500	620	
1	0	0	0	0	486	619	
2	0	0	0	0	469	619	
3	0	0	0	0	543	618	
4	0	0	0	0	551	618	
5	0	0	0	0	514	617	
6	0	0	0	0	533	617	
7	0	0	0	0	525	617	
8	0	0	0	0	537	616	
9	0	0	0	0	572	616	
10	0	0	0	0	534	616	
11	0	0	0	0	503	616	
12	0	0	0	0	509	616	
13	0	0	0	0	482	616	
14	0	0	0	0	456	617	
15	0	0	0	0	511	617	
0	0	0	0	0	454	617	
1	0	0	0	0	471	617	
2	0	0	0	0	445	617	
3	0	0	0	0	507	617	
4	0	0	0	0	464	617	
5	0	0	0	0	496	617	
6	0	0	0	0	499	617	
7	0	0	0	0	482	617	
8	0	0	0	0	481	617	
9	0	0	0	0	495	617	
10	0	0	0	0	498	617	
11	0	0	0	0	502	617	
12	0	0	0	0	506	617	
13	0	0	0	0	487	618	
14	0	0	0	0	485	617	
15	0	0	0	0	490	617	
0	0	0	0	0	513	617	
1	0	0	0	0	482	617	
2	0	0	0	0	513	617	
3	0	0	0	0	460	617	
4	0	0	0	0	520	617	
5	0	0	0	0	508	617	
6	0	0	0	0	524	617	
7	0	0	0	0	458	617	
8	0	0	0	0	534	616	
9	0	0	0	0	507	616	
10	0	0	0	0	508	617	
11	0	0	0	0	533	616	
12	0	0	0	0	474	617	
13	0	0	0	0	550	617	
14	0	0	0	0	493	617	
15	0	0	0	0	584	617	
0	0	0	0	0	521	617	
1	0	0	0	0	507	618	
2	0	0	0	0	536	618	
3	0	0	0	0	481	618	
4	0	0	0	0	559	619	
5	0	0	0	0	502	619	
6	0	0	0	0	520	619	
7	0	0	0	0	538	619	
8	0	0	0	0	548	619	
9	0	0	0	0	491	619	
10	0	0	0	0	555	619	
11	0	0	0	0	534	619	
12	0	0	0	0	526	619	
13	0	0	0	0	503	619	
14	0	0	0	0	580	619	
15	0	0	0	0	519	619	
0	0	0	0	0	616	619	
1	0	0	0	0	518	619	
2	0	0	0	0	498	619	
3	0	0	0	0	498	619	
4	0	0	0	0	543	619	
5	0	0	0	0	562	619	
6	0	0	0	0	542	619	
7	0	0	0	0	568	619	
8	0	0	0	0	566	618	
9	0	0	0	0	589	618	
10	0	0	0	0	568	618	
11	0	0	0	0	566	618	
12	0	0	0	0	572	617	
13	0	0	0	0	480	617	
14	0	0	0	0	467	617	
15	0	0	0	0	427	617	
0	0	0	0	0	522	617	
1	0	0	0	0	464	617	
2	0	0	0	0	489	618	
3	0	0	0	0	460	617	
4	0	0	0	0	443	617	
5	0	0	0	0	415	617	
6	0	0	0	0	429	617	
7	0	0	0	0	512	618	
8	0	0	0	0	468	618	
9	0	0	0	0	548	618	
10	0	0	0	0	647	618	
11	0	0	0	0	605	618	
12	0	0	0	0	481	618	
13	0	0	0	0	403	618	
14	0	0	0	0	412	618	
15	0	0	0	0	454	618	
0	0	0	0	0	425	618	
1	0	0	0	0	458	619	
2	0	0	0	0	488	618	
3	0	0	0	0	461	619	
4	0	0	0	0	438	618	
5	0	0	0	0	436	619	
6	0	0	0	0	493	619	
7	0	0	0	0	434	619	
8	0	0	0	0	519	619	
9	0	0	0	0	513	619	
10	0	0	0	0	464	619	
11	0	0	0	0	515	619	
12	0	0	0	0	550	619	
13	0	0	0	0	422	619	
14	0	0	0	0	513	619	
15	0	0	0	0	496	619	
0	0	0	0	0	531	619	
1	0	0	0	0	510	619	
2	0	0	0	0	536	620	
3	0	0	0	0	569	619	
4	0	0	0	0	547	619	
5	0	0	0	0	494	620	
6	0	0	0	0	510	619	
7	0	0	0	0	533	619	
8	0	0	0	0	512	620	
9	0	0	0	0	519	620	
10	0	0	0	0	516	620	
11	0	0	0	0	476	619	
12	0	0	0	0	499	619	
13	0	0	0	0	463	619	
14	0	0	0	0	509	619	
15	0	0	0	0	484	619	
0	0	0	0	0	531	619	
1	0	0	0	0	502	619	
2	0	0	0	0	515	619	
3	0	0	0	0	529	619	
4	0	0	0	0	536	619	
5	0	0	0	0	489	619	
6	0	0	0	0	547	619	
7	0	0	0	0	524	619	
8	0	0	0	0	492	619	
9	0	0	0	0	549	618	
10	0	0	0	0	486	618	
11	0	0	0	0	550	618	
12	0	0	0	0	543	618	
13	0	0	0	0	515	618	
14	0	0	0	0	532	618	
15	0	0	0	0	531	618	
0	0	0	0	0	499	618	
1	0	0	0	0	486	617	
2	0	0	0	0	503	617	
3	0	0	0	0	524	618	
4	0	0	0	0	500	617	
5	0	0	0	0	517	617	
6	0	0	0	0	524	617	
7	0	0	0	0	532	617	
8	0	0	0	0	498	617	
9	0	0	0	0	516	617	
10	0	0	0	0	516	617	
11	0	0	0	0	509	617	
12	0	0	0	0	534	617	
13	0	0	0	0	529	617	
14	0	0	0	0	518	617	
15	0	0	0	0	534	617	
0	0	0	0	0	515	617	
1	0	0	0	0	535	617	
2	0	0	0	0	516	617	
3	0	0	0	0	522	617	
4	0	0	0	0	534	617	
5	0	0	0	0	526	617	
6	0	0	0	0	527	617	
7	0	0	0	0	510	617	
8	0	0	0	0	490	617	
9	0	0	0	0	548	617	
10	0	0	0	0	485	617	
11	0	0	0	0	535	616	
12	0	0	0	0	557	617	
13	0	0	0	0	483	616	
14	0	0	0	0	521	617	
15	0	0	0	0	568	616	
0	0	0	0	0	546	617	
1	0	0	0	0	534	617	
2	0	0	0	0	536	616	
3	0	0	0	0	527	617	
4	0	0	0	0	531	617	
5	0	0	0	0	518	616	
6	0	0	0	0	512	616	
7	0	0	0	0	512	616	
8	0	0	0	0	515	617	
9	0	0	0	0	472	616	
10	0	0	0	0	514	616	
11	0	0	0	0	505	616	
12	0	0	0	0	492	616	
13	0	0	0	0	508	616	
14	0	0	0	0	519	616	
15	0	0	0	0	487	616	
0	0	0	0	0	482	616	
1	0	0	0	0	491	616	
2	0	0	0	0	676	616	
3	0	0	0	0	704	616	
4	0	0	0	0	636	616	
5	0	0	0	0	503	616	
6	0	0	0	0	440	616	
7	0	0	0	0	437	616	
8	0	0	0	0	473	616	
9	0	0	0	0	504	616	
10	0	0	0	0	432	616	
11	0	0	0	0	472	616	
12	0	0	0	0	465	616	
13	0	0	0	0	450	616	
14	0	0	0	0	435	616	
15	0	0	0	0	459	616	
0	0	0	0	0	472	616	
1	0	0	0	0	491	616	
2	0	0	0	0	507	616	
3	0	0	0	0	488	616	
4	0	0	0	0	502	616	
5	0	0	0	0	496	616	
6	0	0	0	0	492	616	
7	0	0	0	0	489	616	
8	0	0	0	0	542	616	
9	0	0	0	0	493	616	
10	0	0	0	0	521	616	
11	0	0	0	0	499	616	
12	0	0	0	0	516	616	
13	0	0	0	0	538	616	
14	0	0	0	0	539	616	
15	0	0	0	0	511	616	
0	0	0	0	0	497	616	
1	0	0	0	0	480	616	
2	0	0	0	0	516	616	
3	0	0	0	0	519	615	
4	0	0	0	0	461	615	
5	0	0	0	0	492	615	
6	0	0	0	0	464	615	
7	0	0	0	0	521	615	
8	0	0	0	0	478	615	
9	0	0	0	0	469	614	
10	0	0	0	0	496	614	
11	0	0	0	0	474	614	
12	0	0	0	0	501	614	
13	0	0	0	0	468	613	
14	0	0	0	0	529	613	
15	0	0	0	0	523	612	
0	0	0	0	0	485	612	
1	0	0	0	0	510	611	
2	0	0	0	0	501	611	
3	0	0	0	0	513	610	
4	0	0	0	0	506	609	
5	0	0	0	0	487	608	
6	0	0	0	0	521	607	
7	0	0	0	0	512	606	
8	0	0	0	0	498	605	
9	0	0	0	0	484	604	
10	0	0	0	0	522	603	
11	0	0	0	0	512	602	
12	0	0	0	0	521	601	
13	0	0	0	0	446	600	
14	0	0	0	0	535	600	
15	0	0	0	0	529	599	
0	0	0	0	0	488	598	
1	0	0	0	0	511	598	
2	0	0	0	0	497	597	
3	0	0	0	0	482	597	
4	0	0	0	0	515	596	
5	0	0	0	0	481	596	
6	0	0	0	0	507	596	
7	0	0	0	0	480	596	
8	0	0	0	0	519	596	
9	0	0	0	0	480	596	
10	0	0	0	0	530	596	
11	0	0	0	0	496	596	
12	0	0	0	0	498	596	
13	0	0	0	0	490	596	
14	0	0	0	0	507	596	
15	0	0	0	0	508	596	
0	0	0	0	0	519	596	
1	0	0	0	0	498	597	
2	0	0	0	0	519	597	
3	0	0	0	0	496	597	
4	0	0	0	0	483	597	
5	0	0	0	0	525	597	
6	0	0	0	0	502	597	
7	0	0	0	0	527	598	
8	0	0	0	0	531	598	
9	0	0	0	0	499	598	
10	0	0	0	0	500	598	
11	0	0	0	0	500	598	
12	0	0	0	0	519	598	
13	0	0	0	0	520	598	
14	0	0	0	0	498	598	
15	0	0	0	0	502	599	
0	0	0	0	0	528	599	
1	0	0	0	0	511	599	
2	0	0	0	0	508	599	
3	0	0	0	0	528	599	
4	0	0	0	0	530	599	
5	0	0	0	0	523	599	
6	0	0	0	0	502	599	
7	0	0	0	0	539	600	
8	0	0	0	0	499	599	
9	0	0	0	0	487	599	
10	0	0	0	0	539	600	
11	0	0	0	0	494	600	
12	0	0	0	0	498	600	
13	0	0	0	0	544	600	
14	0	0	0	0	527	600	
15	0	0	0	0	500	600	
0	0	0	0	0	492	601	
1	0	0	0	0	504	601	
2	0	0	0	0	490	601	
3	0	0	0	0	664	601	
4	0	0	0	0	717	602	
5	0	0	0	0	668	602	
6	0	0	0	0	504	603	
7	0	0	0	0	445	603	
8	0	0	0	0	461	603	
9	0	0	0	0	480	603	
10	0	0	0	0	444	604	
11	0	0	0	0	468	604	
12	0	0	0	0	478	604	
13	0	0	0	0	483	604	
14	0	0	0	0	494	604	
15	0	0	0	0	497	604	
0	0	0	0	0	528	604	
1	0	0	0	0	512	604	
2	0	0	0	0	532	605	
3	0	0	0	0	495	605	
4	0	0	0	0	519	605	
5	0	0	0	0	549	605	
6	0	0	0	0	551	605	
7	0	0	0	0	531	605	
8	0	0	0	0	545	605	
9	0	0	0	0	514	605	
10	0	0	0	0	550	605	
11	0	0	0	0	517	605	
12	0	0	0	0	575	605	
13	0	0	0	0	545	605	
14	0	0	0	0	505	605	
15	0	0	0	0	539	605	
0	0	0	0	0	572	605	
1	0	0	0	0	488	605	
2	0	0	0	0	498	605	
3	0	0	0	0	544	605	
4	0	0	0	0	485	605	
5	0	0	0	0	471	605	
6	0	0	0	0	489	605	
7	0	0	0	0	513	605	
8	0	0	0	0	511	604	
9	0	0	0	0	503	604	
10	0	0	0	0	463	604	
11	0	0	0	0	503	604	
12	0	0	0	0	528	604	
13	0	0	0	0	548	604	
14	0	0	0	0	519	604	
15	0	0	0	0	556	604	
0	0	0	0	0	496	604	
1	0	0	0	0	520	604	
2	0	0	0	0	478	604	
3	0	0	0	0	558	604	
4	0	0	0	0	486	604	
5	0	0	0	0	512	604	
6	0	0	0	0	478	604	
7	0	0	0	0	521	604	
8	0	0	0	0	492	604	
9	0	0	0	0	498	604	
10	0	0	0	0	499	604	
11	0	0	0	0	505	603	
12	0	0	0	0	509	604	
13	0	0	0	0	479	603	
14	0	0	0	0	511	603	
15	0	0	0	0	541	603	
0	0	0	0	0	511	603	
1	0	0	0	0	504	603	
2	0	0	0	0	511	603	
3	0	0	0	0	503	603	
4	0	0	0	0	507	603	
5	0	0	0	0	504	603	
6	0	0	0	0	526	603	
7	0	0	0	0	517	603	
8	0	0	0	0	551	603	
9	0	0	0	0	492	603	
10	0	0	0	0	548	603	
11	0	0	0	0	490	603	
12	0	0	0	0	507	603	
13	0	0	0	0	520	603	
14	0	0	0	0	539	603	
15	0	0	0	0	548	603	
0	0	0	0	0	481	603	
1	0	0	0	0	531	603	
2	0	0	0	0	536	603	
